Wavelength,Spectra
198.8,1.64E-08
198.85,3.10E-07
198.89,2.97E-06
198.93,2.63E-05
198.97,2.14E-04
199.02,2.65E-03
199.06,1.81E-02
199.1,1.14E-01
199.14,6.61E-01
199.19,5.33E+00
199.23,2.59E+01
199.27,1.16E+02
199.31,4.80E+02
199.36,2.53E+03
199.4,8.74E+03
199.44,2.79E+04
199.48,8.21E+04
199.53,2.83E+05
199.57,6.96E+05
199.61,1.58E+06
199.65,3.31E+06
199.7,7.47E+06
199.74,1.31E+07
199.78,2.11E+07
199.82,3.15E+07
199.87,4.64E+07
199.91,5.79E+07
199.95,6.66E+07
199.99,7.07E+07
200.04,6.81E+07
200.08,6.04E+07
200.12,4.94E+07
200.16,3.74E+07
200.21,2.35E+07
200.25,1.49E+07
200.29,8.66E+06
200.33,4.66E+06
200.38,1.92E+06
200.42,8.61E+05
200.46,3.57E+05
200.5,1.37E+05
200.55,3.68E+04
200.59,1.18E+04
200.63,3.48E+03
200.67,9.47E+02
200.72,1.67E+02
200.76,3.79E+01
200.8,7.97E+00
200.84,1.55E+00
200.89,1.78E-01
200.93,2.88E-02
200.97,4.31E-03
201.01,5.95E-04
201.06,4.47E-05
201.1,5.16E-06
201.14,5.49E-07
201.18,5.39E-08
204.33,3.38E-06
204.37,3.34E-05
204.42,5.26E-04
204.46,4.39E-03
204.5,3.39E-02
204.54,2.43E-01
204.59,2.56E+00
204.63,1.55E+01
204.67,8.66E+01
204.71,4.49E+02
204.76,3.17E+03
204.8,1.39E+04
204.84,5.63E+04
204.88,2.12E+05
204.93,9.98E+05
204.97,3.17E+06
205.01,9.32E+06
205.05,2.54E+07
205.1,8.01E+07
205.14,1.84E+08
205.18,3.93E+08
205.22,7.77E+08
205.27,1.64E+09
205.31,2.73E+09
205.35,4.22E+09
205.39,6.05E+09
205.44,8.52E+09
205.48,1.03E+10
205.52,1.15E+10
205.56,1.20E+10
205.61,1.13E+10
205.65,9.91E+09
205.69,8.08E+09
205.73,6.16E+09
205.78,4.11E+09
205.82,3.00E+09
205.86,2.49E+09
205.9,2.58E+09
205.95,3.47E+09
205.99,4.65E+09
206.03,6.03E+09
206.07,7.38E+09
206.12,8.63E+09
206.16,9.04E+09
206.2,8.88E+09
206.24,8.26E+09
206.29,7.19E+09
206.33,6.42E+09
206.37,5.95E+09
206.41,5.83E+09
206.46,6.04E+09
206.5,6.25E+09
206.54,6.29E+09
206.58,6.02E+09
206.63,5.22E+09
206.67,4.31E+09
206.71,3.30E+09
206.75,2.35E+09
206.8,1.39E+09
206.84,8.37E+08
206.88,4.68E+08
206.92,2.43E+08
206.97,9.62E+07
207.01,4.21E+07
207.05,1.71E+07
207.09,6.46E+06
207.14,1.72E+06
207.18,5.47E+05
207.22,1.62E+05
207.26,4.44E+04
207.31,7.92E+03
207.35,1.84E+03
207.39,3.94E+02
207.43,7.86E+01
207.48,9.42E+00
207.52,1.59E+00
207.56,2.48E-01
207.6,3.59E-02
207.65,2.89E-03
207.69,3.54E-04
207.73,4.02E-05
207.77,4.24E-06
234.01,1.23E-09
234.05,9.25E-09
234.09,6.58E-08
234.13,4.43E-07
234.18,4.42E-06
234.22,2.61E-05
234.26,1.45E-04
234.3,7.63E-04
234.35,5.60E-03
234.39,2.59E-02
234.43,1.13E-01
234.47,4.64E-01
234.52,2.51E+00
234.56,9.06E+00
234.6,3.09E+01
234.64,9.94E+01
234.69,3.95E+02
234.73,1.12E+03
234.77,2.98E+03
234.81,7.51E+03
234.86,2.20E+04
234.9,4.86E+04
234.94,1.02E+05
234.98,2.00E+05
235.03,4.31E+05
235.07,7.45E+05
235.11,1.22E+06
235.15,1.88E+06
235.2,2.97E+06
235.24,4.03E+06
235.28,5.14E+06
235.32,6.21E+06
235.37,7.23E+06
235.41,7.66E+06
235.45,7.66E+06
235.49,7.23E+06
235.54,6.21E+06
235.58,5.14E+06
235.62,4.03E+06
235.66,2.97E+06
235.71,1.88E+06
235.75,1.22E+06
235.79,7.49E+05
235.84,3.84E+05
235.88,2.29E+05
235.92,1.68E+05
235.96,1.93E+05
236.01,3.67E+05
236.05,6.74E+05
236.09,1.21E+06
236.13,2.07E+06
236.18,3.79E+06
236.22,5.78E+06
236.26,8.40E+06
236.3,1.16E+07
236.35,1.63E+07
236.39,2.03E+07
236.43,2.41E+07
236.47,2.73E+07
236.52,3.01E+07
236.56,3.11E+07
236.6,3.07E+07
236.64,2.90E+07
236.69,2.55E+07
236.73,2.18E+07
236.77,1.79E+07
236.81,1.40E+07
236.86,9.68E+06
236.9,6.82E+06
236.94,4.59E+06
236.98,2.95E+06
237.03,1.64E+06
237.07,1.06E+06
237.11,8.06E+05
237.15,8.12E+05
237.2,1.13E+06
237.24,1.60E+06
237.28,2.24E+06
237.32,3.00E+06
237.37,4.01E+06
237.41,4.75E+06
237.45,5.32E+06
237.49,5.63E+06
237.54,5.58E+06
237.58,5.20E+06
237.62,4.59E+06
237.66,3.83E+06
237.71,2.85E+06
237.75,2.17E+06
237.79,1.70E+06
237.83,1.52E+06
237.88,1.87E+06
237.92,2.81E+06
237.96,4.53E+06
238,7.25E+06
238.05,1.24E+07
238.09,1.79E+07
238.13,2.45E+07
238.17,3.18E+07
238.22,4.10E+07
238.26,4.75E+07
238.3,5.22E+07
238.34,5.49E+07
238.39,5.48E+07
238.43,5.25E+07
238.47,4.85E+07
238.51,4.35E+07
238.56,3.69E+07
238.6,3.18E+07
238.64,2.74E+07
238.68,2.37E+07
238.73,2.04E+07
238.77,1.87E+07
238.81,1.75E+07
238.85,1.67E+07
238.9,1.57E+07
238.94,1.47E+07
238.98,1.33E+07
239.02,1.16E+07
239.07,9.13E+06
239.11,7.13E+06
239.15,5.28E+06
239.19,3.71E+06
239.24,2.21E+06
239.28,1.37E+06
239.32,8.03E+05
239.36,4.46E+05
239.41,1.97E+05
239.45,9.65E+04
239.49,4.46E+04
239.53,1.95E+04
239.58,6.42E+03
239.62,2.48E+03
239.66,9.02E+02
239.7,3.11E+02
239.75,7.60E+01
239.79,2.32E+01
239.83,7.31E+00
239.87,4.58E+00
239.92,1.51E+01
239.96,5.27E+01
240,1.78E+02
240.04,5.68E+02
240.09,2.25E+03
240.13,6.35E+03
240.17,1.70E+04
240.21,4.30E+04
240.26,1.27E+05
240.3,2.84E+05
240.34,6.01E+05
240.38,1.20E+06
240.43,2.65E+06
240.47,4.69E+06
240.51,7.86E+06
240.55,1.25E+07
240.6,2.05E+07
240.64,2.87E+07
240.68,3.81E+07
240.72,4.78E+07
240.77,5.87E+07
240.81,6.50E+07
240.85,6.82E+07
240.89,6.77E+07
240.94,6.21E+07
240.98,5.45E+07
241.02,4.53E+07
241.06,3.56E+07
241.11,2.44E+07
241.15,1.69E+07
241.19,1.11E+07
241.23,6.92E+06
241.28,3.54E+06
241.32,1.94E+06
241.36,1.01E+06
241.4,4.98E+05
241.45,1.90E+05
241.49,8.27E+04
241.53,3.41E+04
241.57,1.33E+04
241.62,3.79E+03
241.66,1.30E+03
241.7,4.25E+02
241.74,1.31E+02
241.79,2.79E+01
241.83,7.61E+00
241.87,1.96E+00
241.91,4.80E-01
241.96,7.63E-02
242,1.65E-02
242.04,3.36E-03
242.08,6.50E-04
242.13,7.72E-05
242.17,1.32E-05
242.21,2.13E-06
242.25,3.27E-07
242.3,2.90E-08
242.34,1.83E-09
246.42,1.79E-09
246.46,1.21E-08
246.51,1.23E-07
246.55,7.43E-07
246.59,4.25E-06
246.63,2.31E-05
246.68,1.78E-04
246.72,8.59E-04
246.76,3.94E-03
246.8,1.72E-02
246.85,1.00E-01
246.89,3.88E-01
246.93,1.43E+00
246.97,4.98E+00
247.02,2.21E+01
247.06,6.84E+01
247.1,2.02E+02
247.14,5.64E+02
247.19,1.89E+03
247.23,4.71E+03
247.27,1.11E+04
247.31,2.49E+04
247.36,6.35E+04
247.4,1.27E+05
247.44,2.40E+05
247.48,4.31E+05
247.53,8.32E+05
247.57,1.33E+06
247.61,2.02E+06
247.65,2.90E+06
247.7,4.26E+06
247.74,5.45E+06
247.78,6.62E+06
247.82,7.64E+06
247.87,8.50E+06
247.91,8.72E+06
247.95,8.50E+06
247.99,7.86E+06
248.04,6.62E+06
248.08,5.45E+06
248.12,4.26E+06
248.16,3.15E+06
248.21,2.02E+06
248.25,1.33E+06
248.29,8.32E+05
248.33,4.94E+05
248.38,2.40E+05
248.42,1.27E+05
248.46,6.45E+04
248.5,3.30E+04
248.55,2.00E+04
248.59,2.62E+04
248.63,5.15E+04
248.67,1.10E+05
248.72,2.71E+05
248.76,5.29E+05
248.8,9.82E+05
248.84,1.73E+06
248.89,3.29E+06
248.93,5.18E+06
248.97,7.76E+06
249.01,1.11E+07
249.06,1.62E+07
249.1,2.08E+07
249.14,2.57E+07
249.18,3.04E+07
249.23,3.60E+07
249.27,4.00E+07
249.31,4.38E+07
249.36,4.83E+07
249.4,5.21E+07
249.44,5.59E+07
249.48,5.97E+07
249.53,6.34E+07
249.57,6.51E+07
249.61,6.49E+07
249.65,6.28E+07
249.7,5.75E+07
249.74,5.17E+07
249.78,4.54E+07
249.82,3.93E+07
249.87,3.31E+07
249.91,2.96E+07
249.95,2.79E+07
249.99,2.80E+07
250.04,3.05E+07
250.08,3.43E+07
250.12,3.93E+07
250.16,4.53E+07
250.21,5.35E+07
250.25,5.98E+07
250.29,6.52E+07
250.33,6.91E+07
250.38,7.10E+07
250.42,6.99E+07
250.46,6.67E+07
250.5,6.17E+07
250.55,5.42E+07
250.59,4.82E+07
250.63,4.30E+07
250.67,3.89E+07
250.72,3.55E+07
250.76,3.39E+07
250.8,3.28E+07
250.84,3.16E+07
250.89,2.97E+07
250.93,2.75E+07
250.97,2.47E+07
251.01,2.18E+07
251.06,1.83E+07
251.1,1.60E+07
251.14,1.44E+07
251.18,1.36E+07
251.23,1.33E+07
251.27,1.35E+07
251.31,1.36E+07
251.35,1.36E+07
251.4,1.29E+07
251.44,1.18E+07
251.48,1.03E+07
251.52,8.60E+06
251.57,6.40E+06
251.61,4.78E+06
251.65,3.39E+06
251.69,2.29E+06
251.74,1.31E+06
251.78,7.87E+05
251.82,4.51E+05
251.86,2.46E+05
251.91,1.10E+05
251.95,5.92E+04
251.99,4.23E+04
252.03,5.44E+04
252.08,1.26E+05
252.12,2.64E+05
252.16,5.37E+05
252.2,1.04E+06
252.25,2.23E+06
252.29,3.87E+06
252.33,6.38E+06
252.37,1.00E+07
252.42,1.64E+07
252.46,2.30E+07
252.5,3.07E+07
252.54,3.89E+07
252.59,4.89E+07
252.63,5.54E+07
252.67,5.97E+07
252.71,6.12E+07
252.76,5.89E+07
252.8,5.39E+07
252.84,4.70E+07
252.88,3.89E+07
252.93,2.87E+07
252.97,2.12E+07
253.01,1.50E+07
253.05,1.00E+07
253.1,5.66E+06
253.14,3.39E+06
253.18,1.93E+06
253.22,1.05E+06
253.27,4.71E+05
253.31,2.60E+05
253.35,1.85E+05
253.39,2.06E+05
253.44,3.52E+05
253.48,5.82E+05
253.52,9.37E+05
253.56,1.44E+06
253.61,2.32E+06
253.65,3.20E+06
253.69,4.20E+06
253.73,5.26E+06
253.78,6.49E+06
253.82,7.26E+06
253.86,7.74E+06
253.9,7.88E+06
253.95,7.56E+06
253.99,7.01E+06
254.03,6.32E+06
254.07,5.66E+06
254.12,5.10E+06
254.16,5.02E+06
254.2,5.34E+06
254.24,6.04E+06
254.29,7.36E+06
254.33,8.58E+06
254.37,9.77E+06
254.41,1.08E+07
254.46,1.16E+07
254.5,1.18E+07
254.54,1.17E+07
254.58,1.16E+07
254.63,1.16E+07
254.67,1.20E+07
254.71,1.28E+07
254.75,1.42E+07
254.8,1.63E+07
254.84,1.81E+07
254.88,1.95E+07
254.92,2.04E+07
254.97,2.03E+07
255.01,1.92E+07
255.05,1.73E+07
255.09,1.49E+07
255.14,1.16E+07
255.18,8.94E+06
255.22,6.57E+06
255.26,4.60E+06
255.31,2.75E+06
255.35,1.73E+06
255.39,1.05E+06
255.43,6.40E+05
255.48,4.16E+05
255.52,4.34E+05
255.56,6.35E+05
255.6,1.06E+06
255.65,2.05E+06
255.69,3.33E+06
255.73,5.15E+06
255.77,7.61E+06
255.82,1.16E+07
255.86,1.53E+07
255.9,1.93E+07
255.95,2.41E+07
255.99,2.72E+07
256.03,2.93E+07
256.07,3.00E+07
256.12,2.89E+07
256.16,2.65E+07
256.2,2.32E+07
256.24,1.93E+07
256.29,1.44E+07
256.33,1.07E+07
256.37,7.62E+06
256.41,5.16E+06
256.46,2.97E+06
256.5,1.84E+06
256.54,1.14E+06
256.58,7.98E+05
256.63,7.91E+05
256.67,1.14E+06
256.71,1.87E+06
256.75,3.10E+06
256.8,5.60E+06
256.84,8.55E+06
256.88,1.24E+07
256.92,1.72E+07
256.97,2.42E+07
257.01,3.01E+07
257.05,3.57E+07
257.09,4.03E+07
257.14,4.38E+07
257.18,4.44E+07
257.22,4.30E+07
257.26,3.97E+07
257.31,3.40E+07
257.35,2.90E+07
257.39,2.44E+07
257.43,2.07E+07
257.48,1.81E+07
257.52,1.79E+07
257.56,1.91E+07
257.6,2.15E+07
257.65,2.55E+07
257.69,2.87E+07
257.73,3.15E+07
257.77,3.34E+07
257.82,3.40E+07
257.86,3.29E+07
257.9,3.07E+07
257.94,2.75E+07
257.99,2.27E+07
258.03,1.88E+07
258.07,1.52E+07
258.11,1.22E+07
258.16,9.38E+06
258.2,8.07E+06
258.24,7.50E+06
258.28,7.56E+06
258.33,8.26E+06
258.37,9.09E+06
258.41,9.97E+06
258.45,1.08E+07
258.5,1.16E+07
258.54,1.22E+07
258.58,1.27E+07
258.62,1.33E+07
258.67,1.43E+07
258.71,1.55E+07
258.75,1.72E+07
258.79,1.95E+07
258.84,2.35E+07
258.88,2.78E+07
258.92,3.30E+07
258.96,3.91E+07
259.01,4.74E+07
259.05,5.39E+07
259.09,5.94E+07
259.13,6.31E+07
259.18,6.44E+07
259.22,6.23E+07
259.26,5.77E+07
259.3,5.10E+07
259.35,4.10E+07
259.39,3.26E+07
259.43,2.48E+07
259.47,1.80E+07
259.52,1.12E+07
259.56,7.31E+06
259.6,4.54E+06
259.64,2.69E+06
259.69,1.32E+06
259.73,7.22E+05
259.77,4.09E+05
259.81,2.80E+05
259.86,3.03E+05
259.9,4.48E+05
259.94,7.17E+05
259.98,1.14E+06
260.03,1.91E+06
260.07,2.75E+06
260.11,3.79E+06
260.15,4.97E+06
260.2,6.53E+06
260.24,7.70E+06
260.28,8.66E+06
260.32,9.30E+06
260.37,9.51E+06
260.41,9.18E+06
260.45,8.45E+06
260.49,7.42E+06
260.54,5.90E+06
260.58,4.66E+06
260.62,3.51E+06
260.66,2.52E+06
260.71,1.56E+06
260.75,1.01E+06
260.79,6.22E+05
260.83,3.66E+05
260.88,1.76E+05
260.92,9.33E+04
260.96,4.71E+04
261,2.29E+04
261.05,9.47E+03
261.09,6.08E+03
261.13,7.11E+03
261.17,1.30E+04
261.22,3.16E+04
261.26,6.28E+04
261.3,1.20E+05
261.34,2.18E+05
261.39,4.34E+05
261.43,7.16E+05
261.47,1.13E+06
261.51,1.71E+06
261.56,2.70E+06
261.6,3.73E+06
261.64,4.94E+06
261.68,6.32E+06
261.73,8.19E+06
261.77,9.74E+06
261.81,1.13E+07
261.85,1.28E+07
261.9,1.46E+07
261.94,1.59E+07
261.98,1.72E+07
262.02,1.86E+07
262.07,2.02E+07
262.11,2.16E+07
262.15,2.28E+07
262.19,2.40E+07
262.24,2.52E+07
262.28,2.59E+07
262.32,2.63E+07
262.36,2.64E+07
262.41,2.63E+07
262.45,2.59E+07
262.49,2.53E+07
262.53,2.45E+07
262.58,2.33E+07
262.62,2.20E+07
262.66,2.06E+07
262.71,1.87E+07
262.75,1.71E+07
262.79,1.56E+07
262.83,1.42E+07
262.88,1.27E+07
262.92,1.16E+07
262.96,1.05E+07
263,9.46E+06
263.05,8.08E+06
263.09,6.92E+06
263.13,5.75E+06
263.17,4.61E+06
263.22,3.31E+06
263.26,2.43E+06
263.3,1.70E+06
263.34,1.14E+06
263.39,6.52E+05
263.43,3.96E+05
263.47,2.30E+05
263.51,1.27E+05
263.56,5.69E+04
263.6,2.84E+04
263.64,1.36E+04
263.68,6.17E+03
263.73,2.16E+03
263.77,8.88E+02
263.81,3.48E+02
263.85,1.30E+02
263.9,3.57E+01
263.94,1.20E+01
263.98,3.87E+00
264.02,1.20E+00
264.07,3.29E-01
264.11,3.83E-01
264.15,1.28E+00
264.19,4.89E+00
264.24,2.48E+01
264.28,8.66E+01
264.32,2.89E+02
264.36,9.20E+02
264.41,3.68E+03
264.45,1.06E+04
264.49,2.91E+04
264.53,7.63E+04
264.58,2.39E+05
264.62,5.68E+05
264.66,1.29E+06
264.7,2.79E+06
264.75,6.86E+06
264.79,1.34E+07
264.83,2.51E+07
264.87,4.48E+07
264.92,8.66E+07
264.96,1.40E+08
265,2.15E+08
265.04,3.16E+08
265.09,4.81E+08
265.13,6.40E+08
265.17,8.13E+08
265.21,9.87E+08
265.26,1.18E+09
265.3,1.30E+09
265.34,1.38E+09
265.38,1.40E+09
265.43,1.37E+09
265.47,1.32E+09
265.51,1.25E+09
265.55,1.20E+09
265.6,1.18E+09
265.64,1.21E+09
265.68,1.28E+09
265.72,1.36E+09
265.77,1.48E+09
265.81,1.54E+09
265.85,1.56E+09
265.89,1.53E+09
265.94,1.40E+09
265.98,1.26E+09
266.02,1.09E+09
266.06,9.13E+08
266.11,7.31E+08
266.15,6.39E+08
266.19,6.13E+08
266.23,6.67E+08
266.28,8.58E+08
266.32,1.11E+09
266.36,1.44E+09
266.4,1.84E+09
266.45,2.38E+09
266.49,2.81E+09
266.53,3.21E+09
266.57,3.54E+09
266.62,3.82E+09
266.66,3.95E+09
266.7,3.99E+09
266.74,3.96E+09
266.79,3.89E+09
266.83,3.83E+09
266.87,3.80E+09
266.91,3.83E+09
266.96,3.95E+09
267,4.12E+09
267.04,4.34E+09
267.08,4.57E+09
267.13,4.81E+09
267.17,4.92E+09
267.21,4.91E+09
267.25,4.76E+09
267.3,4.36E+09
267.34,3.90E+09
267.38,3.37E+09
267.42,2.79E+09
267.47,2.09E+09
267.51,1.58E+09
267.55,1.15E+09
267.59,8.06E+08
267.64,4.89E+08
267.68,3.16E+08
267.72,1.99E+08
267.76,1.23E+08
267.81,6.90E+07
267.85,4.55E+07
267.89,3.23E+07
267.93,2.49E+07
267.98,1.95E+07
268.02,1.66E+07
268.06,1.42E+07
268.1,1.20E+07
268.15,9.44E+06
268.19,7.53E+06
268.23,5.82E+06
268.27,4.34E+06
268.32,2.87E+06
268.36,1.98E+06
268.4,1.34E+06
268.44,9.01E+05
268.49,6.07E+05
268.53,5.50E+05
268.57,6.42E+05
268.61,8.89E+05
268.66,1.44E+06
268.7,2.08E+06
268.74,2.92E+06
268.78,3.93E+06
268.83,5.36E+06
268.87,6.54E+06
268.91,7.64E+06
268.95,8.53E+06
269,9.22E+06
269.04,9.34E+06
269.08,9.07E+06
269.12,8.45E+06
269.17,7.36E+06
269.21,6.37E+06
269.25,5.44E+06
269.29,4.68E+06
269.34,4.09E+06
269.38,3.95E+06
269.42,4.09E+06
269.47,4.60E+06
269.51,5.18E+06
269.55,5.82E+06
269.59,6.49E+06
269.64,7.31E+06
269.68,8.03E+06
269.72,8.91E+06
269.76,1.01E+07
269.81,1.24E+07
269.85,1.50E+07
269.89,1.84E+07
269.93,2.25E+07
269.98,2.87E+07
270.02,3.39E+07
270.06,3.89E+07
270.1,4.33E+07
270.15,4.71E+07
270.19,4.84E+07
270.23,4.80E+07
270.27,4.59E+07
270.32,4.12E+07
270.36,3.62E+07
270.4,3.08E+07
270.44,2.52E+07
270.49,1.86E+07
270.53,1.40E+07
270.57,1.02E+07
270.61,7.16E+06
270.66,4.37E+06
270.7,2.83E+06
270.74,1.76E+06
270.78,1.06E+06
270.83,5.34E+05
270.87,3.00E+05
270.91,1.69E+05
270.95,1.07E+05
271,9.83E+04
271.04,1.41E+05
271.08,2.38E+05
271.12,4.09E+05
271.17,7.74E+05
271.21,1.23E+06
271.25,1.88E+06
271.29,2.75E+06
271.34,4.16E+06
271.38,5.51E+06
271.42,7.00E+06
271.46,8.50E+06
271.51,1.02E+07
271.55,1.13E+07
271.59,1.19E+07
271.63,1.20E+07
271.68,1.15E+07
271.72,1.05E+07
271.76,9.23E+06
271.8,7.76E+06
271.85,5.89E+06
271.89,4.52E+06
271.93,3.36E+06
271.97,2.47E+06
272.02,1.81E+06
272.06,1.71E+06
272.1,2.08E+06
272.14,3.04E+06
272.19,5.40E+06
272.23,8.51E+06
272.27,1.30E+07
272.31,1.91E+07
272.36,2.92E+07
272.4,3.91E+07
272.44,5.01E+07
272.48,6.14E+07
272.53,7.48E+07
272.57,8.34E+07
272.61,8.93E+07
272.65,9.19E+07
272.7,9.02E+07
272.74,8.57E+07
272.78,7.92E+07
272.82,7.22E+07
272.87,6.44E+07
272.91,6.01E+07
272.95,5.83E+07
272.99,5.88E+07
273.04,6.20E+07
273.08,6.55E+07
273.12,6.89E+07
273.16,7.11E+07
273.21,7.16E+07
273.25,7.00E+07
273.29,6.70E+07
273.33,6.34E+07
273.38,5.96E+07
273.42,5.85E+07
273.46,6.05E+07
273.5,6.67E+07
273.55,8.25E+07
273.59,1.03E+08
273.63,1.33E+08
273.67,1.72E+08
273.72,2.37E+08
273.76,2.99E+08
273.8,3.68E+08
273.84,4.39E+08
273.89,5.23E+08
273.93,5.77E+08
273.97,6.14E+08
274.01,6.30E+08
274.06,6.21E+08
274.1,5.93E+08
274.14,5.54E+08
274.18,5.10E+08
274.23,4.61E+08
274.27,4.32E+08
274.31,4.14E+08
274.35,4.07E+08
274.4,4.06E+08
274.44,4.07E+08
274.48,4.03E+08
274.52,3.90E+08
274.57,3.58E+08
274.61,3.23E+08
274.65,2.79E+08
274.69,2.33E+08
274.74,1.76E+08
274.78,1.35E+08
274.82,1.00E+08
274.86,7.31E+07
274.91,5.03E+07
274.95,3.97E+07
274.99,3.47E+07
275.03,3.40E+07
275.08,3.72E+07
275.12,4.15E+07
275.16,4.63E+07
275.2,5.08E+07
275.25,5.51E+07
275.29,5.72E+07
275.33,5.82E+07
275.37,5.85E+07
275.42,5.84E+07
275.46,5.86E+07
275.5,5.93E+07
275.54,6.06E+07
275.59,6.27E+07
275.63,6.41E+07
275.67,6.49E+07
275.71,6.46E+07
275.76,6.24E+07
275.8,5.95E+07
275.84,5.59E+07
275.88,5.23E+07
275.93,4.86E+07
275.97,4.69E+07
276.01,4.65E+07
276.05,4.75E+07
276.1,5.01E+07
276.14,5.29E+07
276.18,5.59E+07
276.23,5.93E+07
276.27,6.14E+07
276.31,6.25E+07
276.35,6.26E+07
276.4,6.11E+07
276.44,5.87E+07
276.48,5.56E+07
276.52,5.22E+07
276.57,4.84E+07
276.61,4.66E+07
276.65,4.66E+07
276.69,4.89E+07
276.74,5.49E+07
276.78,6.20E+07
276.82,7.03E+07
276.86,7.88E+07
276.91,8.77E+07
276.95,9.22E+07
276.99,9.35E+07
277.03,9.12E+07
277.08,8.36E+07
277.12,7.45E+07
277.16,6.37E+07
277.2,5.22E+07
277.25,3.84E+07
277.29,2.88E+07
277.33,2.07E+07
277.37,1.44E+07
277.42,9.01E+06
277.46,6.53E+06
277.5,5.56E+06
277.54,6.09E+06
277.59,9.10E+06
277.63,1.37E+07
277.67,2.07E+07
277.71,3.05E+07
277.76,4.69E+07
277.8,6.33E+07
277.84,8.20E+07
277.88,1.02E+08
277.93,1.26E+08
277.97,1.43E+08
278.01,1.56E+08
278.05,1.63E+08
278.1,1.63E+08
278.14,1.57E+08
278.18,1.47E+08
278.22,1.36E+08
278.27,1.26E+08
278.31,1.24E+08
278.35,1.32E+08
278.39,1.53E+08
278.44,1.98E+08
278.48,2.51E+08
278.52,3.16E+08
278.56,3.88E+08
278.61,4.81E+08
278.65,5.48E+08
278.69,6.00E+08
278.73,6.31E+08
278.78,6.34E+08
278.82,6.09E+08
278.86,5.60E+08
278.9,4.95E+08
278.95,4.01E+08
278.99,3.23E+08
279.03,2.49E+08
279.07,1.85E+08
279.12,1.20E+08
279.16,8.13E+07
279.2,5.28E+07
279.24,3.29E+07
279.29,1.72E+07
279.33,9.74E+06
279.37,5.31E+06
279.41,2.77E+06
279.46,1.16E+06
279.5,5.55E+05
279.54,2.54E+05
279.58,1.11E+05
279.63,3.75E+04
279.67,1.50E+04
279.71,5.76E+03
279.75,2.12E+03
279.8,5.75E+02
279.84,1.93E+02
279.88,6.22E+01
279.92,1.92E+01
279.97,4.19E+00
280.01,1.18E+00
280.05,3.19E-01
280.09,8.29E-02
280.14,1.45E-02
280.18,3.43E-03
280.22,7.79E-04
280.26,1.70E-04
280.31,2.38E-05
280.35,4.74E-06
280.39,9.03E-07
280.43,1.65E-07
280.52,2.11E-07
280.56,1.17E-06
280.6,6.18E-06
280.65,4.69E-05
280.69,2.27E-04
280.73,1.06E-03
280.77,4.71E-03
280.82,2.89E-02
280.86,1.18E-01
280.9,4.62E-01
280.94,1.74E+00
280.99,8.62E+00
281.03,2.97E+01
281.07,9.80E+01
281.11,3.11E+02
281.16,1.25E+03
281.2,3.61E+03
281.24,1.01E+04
281.28,2.69E+04
281.33,8.70E+04
281.37,2.13E+05
281.41,5.00E+05
281.45,1.13E+06
281.5,2.94E+06
281.54,6.07E+06
281.58,1.20E+07
281.62,2.28E+07
281.67,4.82E+07
281.71,8.37E+07
281.75,1.40E+08
281.79,2.24E+08
281.84,3.82E+08
281.88,5.60E+08
281.92,7.87E+08
281.96,1.06E+09
282.01,1.47E+09
282.05,1.81E+09
282.09,2.15E+09
282.13,2.45E+09
282.18,2.72E+09
282.22,2.83E+09
282.26,2.83E+09
282.3,2.72E+09
282.35,2.45E+09
282.39,2.15E+09
282.43,1.81E+09
