Wavelength,Spectra
170.11,1.10E-07
170.15,1.16E-06
170.19,1.09E-05
170.23,9.22E-05
170.28,1.14E-03
170.32,7.52E-03
170.36,4.45E-02
170.4,2.36E-01
170.45,1.63E+00
170.49,6.77E+00
170.53,2.52E+01
170.57,8.40E+01
170.62,3.24E+02
170.66,8.45E+02
170.7,1.97E+03
170.74,4.13E+03
170.79,8.92E+03
170.83,1.46E+04
170.87,2.14E+04
170.91,2.81E+04
170.96,3.40E+04
171,3.49E+04
171.04,3.22E+04
171.08,2.65E+04
171.13,1.79E+04
171.17,1.16E+04
171.21,6.69E+03
171.25,3.47E+03
171.3,1.31E+03
171.34,5.31E+02
171.38,1.93E+02
171.42,6.42E+01
171.47,2.09E+01
171.51,3.00E+01
171.55,8.38E+01
171.59,2.32E+02
171.64,7.21E+02
171.68,1.58E+03
171.72,3.11E+03
171.76,5.50E+03
171.81,9.62E+03
171.85,1.34E+04
171.89,1.67E+04
171.93,1.90E+04
171.98,1.96E+04
172.02,1.86E+04
172.06,1.71E+04
172.1,1.59E+04
172.15,1.51E+04
172.19,1.49E+04
172.23,1.45E+04
172.27,1.35E+04
172.32,1.14E+04
172.36,9.40E+03
172.4,7.43E+03
172.44,5.73E+03
172.49,4.03E+03
172.53,2.93E+03
172.57,2.03E+03
172.61,1.32E+03
172.66,6.80E+02
172.7,3.60E+02
172.74,1.73E+02
172.78,7.46E+01
172.83,2.25E+01
172.87,7.67E+00
172.91,2.35E+00
172.95,6.45E-01
173,1.10E-01
173.04,2.38E-02
173.08,4.61E-03
173.12,8.03E-04
173.17,7.76E-05
173.21,1.06E-05
173.25,1.30E-06
173.29,1.57E-07
173.34,2.60E-07
173.38,2.31E-06
173.42,1.90E-05
173.46,1.41E-04
173.51,1.49E-03
173.55,8.70E-03
173.59,4.58E-02
173.63,2.17E-01
173.68,1.31E+00
173.72,4.89E+00
173.76,1.64E+01
173.8,4.97E+01
173.85,1.71E+02
173.89,4.09E+02
173.93,8.78E+02
173.97,1.70E+03
174.02,3.33E+03
174.06,5.08E+03
174.1,6.97E+03
174.14,8.61E+03
174.19,9.66E+03
174.23,9.41E+03
174.27,8.25E+03
174.31,6.51E+03
174.36,4.17E+03
174.4,2.60E+03
174.44,1.48E+03
174.48,9.15E+02
174.53,1.97E+03
174.57,9.13E+03
174.61,4.32E+04
174.65,1.86E+05
174.7,9.94E+05
174.74,3.38E+06
174.78,1.04E+07
174.82,2.87E+07
174.87,8.83E+07
174.91,1.93E+08
174.95,3.80E+08
174.99,6.74E+08
175.04,1.19E+09
175.08,1.67E+09
175.12,2.12E+09
175.17,2.45E+09
175.21,2.45E+09
175.25,2.21E+09
175.29,1.79E+09
175.34,1.19E+09
175.38,7.66E+08
175.42,4.43E+08
175.46,2.31E+08
175.51,8.83E+07
175.55,3.64E+07
175.59,1.35E+07
175.63,4.52E+06
175.68,9.94E+05
175.72,2.63E+05
175.76,6.29E+04
175.8,1.39E+04
175.85,2.63E+03
175.89,1.80E+03
175.93,2.27E+03
175.97,2.96E+03
176.02,3.65E+03
176.06,3.84E+03
176.1,3.65E+03
176.14,3.12E+03
176.19,2.23E+03
176.23,1.51E+03
176.27,9.25E+02
176.31,5.11E+02
176.36,2.11E+02
176.4,9.42E+01
176.44,4.46E+01
176.48,4.25E+01
176.53,1.29E+02
176.57,3.61E+02
176.61,9.26E+02
176.65,2.15E+03
176.7,5.34E+03
176.74,9.86E+03
176.78,1.64E+04
176.82,2.47E+04
176.87,3.57E+04
176.91,4.27E+04
176.95,4.61E+04
176.99,4.49E+04
177.04,3.77E+04
177.08,2.92E+04
177.12,2.04E+04
177.16,1.29E+04
177.21,6.29E+03
177.25,3.15E+03
177.29,1.43E+03
177.33,5.84E+02
177.38,1.66E+02
177.42,5.38E+01
177.46,1.58E+01
177.5,4.18E+00
177.55,6.89E-01
177.59,1.48E-01
177.63,4.22E-02
177.67,7.47E-02
177.72,4.27E-01
177.76,1.62E+00
177.8,5.56E+00
177.84,1.73E+01
177.89,6.18E+01
177.93,1.53E+02
177.97,3.42E+02
178.01,6.92E+02
178.06,1.45E+03
178.1,2.34E+03
178.14,3.41E+03
178.18,4.50E+03
178.23,5.53E+03
178.27,5.84E+03
178.31,5.60E+03
178.35,4.93E+03
178.4,3.90E+03
178.44,3.29E+03
178.48,3.14E+03
178.52,3.54E+03
178.57,4.63E+03
178.61,5.66E+03
178.65,6.47E+03
178.69,6.77E+03
178.74,6.27E+03
178.78,5.34E+03
178.82,4.25E+03
178.86,3.34E+03
178.91,2.94E+03
178.95,3.40E+03
178.99,4.56E+03
179.03,6.24E+03
179.08,8.51E+03
179.12,9.97E+03
179.16,1.08E+04
179.2,1.09E+04
179.25,1.06E+04
179.29,1.06E+04
179.33,1.13E+04
179.37,1.26E+04
179.42,1.47E+04
179.46,1.59E+04
179.5,1.59E+04
179.54,1.47E+04
179.59,1.16E+04
179.63,8.56E+03
179.67,5.75E+03
179.71,3.50E+03
179.76,1.64E+03
179.8,7.96E+02
179.84,3.51E+02
179.88,1.40E+02
179.93,3.86E+01
179.97,1.23E+01
180.01,3.56E+00
180.05,9.30E-01
180.1,1.51E-01
180.14,3.17E-02
180.18,6.00E-03
180.22,1.03E-03
180.27,9.88E-05
180.31,1.36E-05
180.35,1.68E-06
180.39,1.89E-07
180.44,1.07E-08
180.48,9.64E-10
180.52,7.85E-11
180.56,5.79E-12
181.2,2.37E-12
181.24,3.19E-11
181.29,7.18E-10
181.33,7.78E-09
181.37,7.66E-08
181.41,6.84E-07
181.46,9.24E-06
181.5,6.65E-05
181.54,4.35E-04
181.58,2.58E-03
181.63,2.09E-02
181.67,9.99E-02
181.71,4.34E-01
181.75,1.71E+00
181.8,8.30E+00
181.84,2.64E+01
181.88,7.60E+01
181.93,2.50E+02
181.97,5.79E+02
182.01,1.22E+03
182.05,2.34E+03
182.1,4.61E+03
182.14,7.10E+03
182.18,9.95E+03
182.22,1.27E+04
182.27,1.49E+04
182.31,1.53E+04
182.35,1.42E+04
182.39,1.20E+04
182.44,8.51E+03
182.48,5.79E+03
182.52,3.59E+03
182.56,2.05E+03
182.61,9.93E+02
182.65,7.29E+02
182.69,9.22E+02
182.73,1.60E+03
182.78,3.25E+03
182.82,5.27E+03
182.86,7.79E+03
182.9,1.05E+04
182.95,1.33E+04
182.99,1.44E+04
183.03,1.42E+04
183.07,1.27E+04
183.12,9.70E+03
183.16,7.01E+03
183.2,4.61E+03
183.24,2.76E+03
183.29,1.27E+03
183.33,6.10E+02
183.37,2.67E+02
183.41,1.07E+02
183.46,2.95E+01
183.5,9.47E+00
183.54,2.77E+00
183.58,7.35E-01
183.63,1.23E-01
183.67,2.62E-02
183.71,5.11E-03
183.75,9.05E-04
183.8,9.08E-05
183.84,1.30E-05
183.88,1.69E-06
183.92,1.99E-07
183.97,2.05E-08
184.01,8.15E-08
184.05,6.91E-07
184.09,5.41E-06
184.14,6.22E-05
184.18,3.94E-04
184.22,2.28E-03
184.26,1.20E-02
184.31,8.38E-02
184.35,3.57E-01
184.39,1.39E+00
184.43,4.90E+00
184.48,2.09E+01
184.52,5.97E+01
184.56,1.56E+02
184.6,3.70E+02
184.65,9.57E+02
184.69,1.84E+03
184.73,3.23E+03
184.77,5.16E+03
184.82,8.11E+03
184.86,1.05E+04
184.9,1.24E+04
184.94,1.33E+04
184.99,1.28E+04
185.03,1.13E+04
185.07,9.41E+03
185.11,7.72E+03
185.16,6.84E+03
185.2,7.57E+03
185.24,9.59E+03
185.28,1.25E+04
185.33,1.65E+04
185.37,1.88E+04
185.41,1.96E+04
185.45,1.87E+04
185.5,1.55E+04
185.54,1.20E+04
185.58,8.46E+03
185.62,5.43E+03
185.67,2.74E+03
185.71,1.43E+03
185.75,6.79E+02
185.79,2.94E+02
185.84,9.04E+01
185.88,3.17E+01
185.92,1.02E+01
185.96,2.96E+00
186.01,5.55E-01
186.05,1.31E-01
186.09,2.82E-02
186.13,5.54E-03
186.18,6.34E-04
186.22,1.01E-04
186.26,1.46E-05
186.3,1.93E-06
186.35,1.35E-07
186.39,1.44E-08
186.43,1.41E-09
186.47,1.25E-10
186.52,5.34E-12
196.51,1.27E-07
196.55,1.36E-06
196.59,1.35E-05
196.64,2.11E-04
196.68,1.74E-03
196.72,1.32E-02
196.76,9.23E-02
196.81,9.35E-01
196.85,5.44E+00
196.89,2.91E+01
196.93,1.44E+02
196.98,9.43E+02
197.02,3.87E+03
197.06,1.47E+04
197.1,5.11E+04
197.15,2.17E+05
197.19,6.29E+05
197.23,1.68E+06
197.27,4.13E+06
197.32,1.14E+07
197.36,2.33E+07
197.4,4.39E+07
197.44,7.62E+07
197.49,1.36E+08
197.53,1.96E+08
197.57,2.61E+08
197.61,3.20E+08
197.66,3.69E+08
197.7,3.76E+08
197.74,3.54E+08
197.78,3.07E+08
197.83,2.28E+08
197.87,1.65E+08
197.91,1.09E+08
197.95,6.69E+07
198,3.23E+07
198.04,1.64E+07
198.08,7.70E+06
198.12,3.33E+06
198.17,1.04E+06
198.21,3.73E+05
198.25,1.24E+05
198.29,3.79E+04
198.34,8.87E+03
198.38,6.82E+03
198.42,1.79E+04
198.46,5.75E+04
198.51,2.27E+05
198.55,6.24E+05
198.59,1.58E+06
198.63,3.69E+06
198.68,9.51E+06
198.72,1.85E+07
198.76,3.33E+07
198.8,5.51E+07
198.85,9.25E+07
198.89,1.28E+08
198.93,1.63E+08
198.97,1.91E+08
199.02,2.09E+08
199.06,2.05E+08
199.1,1.85E+08
199.14,1.54E+08
199.19,1.10E+08
199.23,7.63E+07
199.27,4.89E+07
199.31,2.90E+07
199.36,1.34E+07
199.4,6.61E+06
199.44,3.01E+06
199.48,1.26E+06
199.53,3.80E+05
199.57,1.33E+05
199.61,4.30E+04
199.65,1.28E+04
199.7,2.51E+03
199.74,6.23E+02
199.78,1.43E+02
199.82,3.03E+01
199.87,5.03E+00
199.91,6.61E+00
199.95,2.75E+01
199.99,1.17E+02
200.04,6.40E+02
200.08,2.28E+03
200.12,7.51E+03
200.16,2.28E+04
200.21,8.20E+04
200.25,2.09E+05
200.29,4.90E+05
200.33,1.06E+06
200.38,2.50E+06
200.42,4.54E+06
200.46,7.61E+06
200.5,1.18E+07
200.55,1.82E+07
200.59,2.36E+07
200.63,2.82E+07
200.67,3.11E+07
200.72,3.15E+07
200.76,2.91E+07
200.8,2.48E+07
200.84,1.96E+07
200.89,1.31E+07
200.93,8.98E+06
200.97,6.29E+06
201.01,5.45E+06
201.06,7.80E+06
201.1,1.34E+07
201.14,2.33E+07
201.18,3.86E+07
201.23,6.55E+07
201.27,9.15E+07
201.31,1.18E+08
201.35,1.41E+08
201.4,1.58E+08
201.44,1.58E+08
201.48,1.46E+08
201.52,1.25E+08
201.57,9.15E+07
201.61,6.54E+07
201.65,4.32E+07
201.69,2.64E+07
201.74,1.28E+07
201.78,6.53E+06
201.82,3.09E+06
201.86,1.35E+06
201.91,4.31E+05
201.95,1.66E+05
201.99,8.08E+04
202.03,9.57E+04
202.08,2.67E+05
202.12,6.34E+05
202.16,1.42E+06
202.21,3.50E+06
202.25,6.66E+06
202.29,1.18E+07
202.33,1.96E+07
202.38,3.35E+07
202.42,4.77E+07
202.46,6.37E+07
202.5,7.98E+07
202.55,9.65E+07
202.59,1.05E+08
202.63,1.06E+08
202.67,1.01E+08
202.72,8.60E+07
202.76,7.02E+07
202.8,5.34E+07
202.84,3.79E+07
202.89,2.23E+07
202.93,1.34E+07
202.97,7.50E+06
203.01,3.89E+06
203.06,1.54E+06
203.1,6.75E+05
203.14,2.74E+05
203.18,1.03E+05
203.23,2.72E+04
203.27,8.58E+03
203.31,2.51E+03
203.35,6.79E+02
203.4,1.19E+02
203.44,2.70E+01
203.48,5.68E+00
203.52,1.11E+00
203.57,1.28E-01
203.61,2.09E-02
203.65,3.19E-03
203.69,6.89E-04
203.74,2.82E-03
203.78,1.77E-02
203.82,1.05E-01
203.86,5.71E-01
203.91,4.29E+00
203.95,1.98E+01
203.99,8.42E+01
204.03,3.33E+02
204.08,1.67E+03
204.12,5.55E+03
204.16,1.71E+04
204.2,4.88E+04
204.25,1.63E+05
204.29,3.92E+05
204.33,8.74E+05
204.37,1.81E+06
204.42,4.01E+06
204.46,6.98E+06
204.5,1.13E+07
204.54,1.68E+07
204.59,2.49E+07
204.63,3.13E+07
204.67,3.65E+07
204.71,3.95E+07
204.76,3.92E+07
204.8,3.61E+07
204.84,3.13E+07
204.88,2.62E+07
204.93,2.15E+07
204.97,2.02E+07
205.01,2.16E+07
205.05,2.53E+07
205.1,3.17E+07
205.14,3.69E+07
205.18,4.07E+07
205.22,4.26E+07
205.27,4.21E+07
205.31,4.03E+07
205.35,3.85E+07
205.39,3.74E+07
205.44,3.74E+07
205.48,3.80E+07
205.52,3.82E+07
205.56,3.73E+07
205.61,3.43E+07
205.65,3.08E+07
205.69,2.76E+07
205.73,2.58E+07
205.78,2.67E+07
205.82,3.02E+07
205.86,3.55E+07
205.9,4.12E+07
205.95,4.66E+07
205.99,4.79E+07
206.03,4.59E+07
206.07,4.09E+07
206.12,3.19E+07
206.16,2.41E+07
206.2,1.68E+07
206.24,1.09E+07
206.29,5.70E+06
206.33,3.12E+06
206.37,1.58E+06
206.41,7.44E+05
206.46,2.61E+05
206.5,1.03E+05
206.54,3.81E+04
206.58,1.30E+04
206.63,3.05E+03
206.67,8.79E+02
206.71,2.35E+02
206.75,5.82E+01
206.8,9.15E+00
206.84,1.91E+00
206.88,3.71E-01
206.92,6.68E-02
206.97,7.03E-03
207.01,1.07E-03
207.05,1.50E-04
207.09,1.96E-05
207.14,1.38E-06
207.18,1.52E-07
207.22,1.56E-08
207.31,1.04E-07
207.35,9.99E-07
207.39,8.92E-06
207.43,7.39E-05
207.48,9.38E-04
207.52,6.59E-03
207.56,4.30E-02
207.6,2.61E-01
207.65,2.24E+00
207.69,1.15E+01
207.73,5.49E+01
207.77,2.44E+02
207.82,1.42E+03
207.86,5.32E+03
207.9,1.86E+04
207.94,6.03E+04
207.99,2.37E+05
208.03,6.51E+05
208.07,1.66E+06
208.11,3.95E+06
208.16,1.05E+07
208.2,2.11E+07
208.24,3.94E+07
208.28,6.85E+07
208.33,1.23E+08
208.37,1.81E+08
208.41,2.48E+08
208.45,3.15E+08
208.5,3.83E+08
208.54,4.13E+08
208.58,4.14E+08
208.62,3.87E+08
208.67,3.26E+08
208.71,2.68E+08
208.75,2.15E+08
208.8,1.69E+08
208.84,1.52E+08
208.88,1.49E+08
208.92,1.57E+08
208.97,1.70E+08
209.01,1.78E+08
209.05,1.82E+08
209.09,1.83E+08
209.14,1.87E+08
209.18,1.95E+08
209.22,2.09E+08
209.26,2.26E+08
209.31,2.43E+08
209.35,2.46E+08
209.39,2.36E+08
209.43,2.13E+08
209.48,1.70E+08
209.52,1.32E+08
209.56,9.46E+07
209.6,6.33E+07
209.65,3.46E+07
209.69,1.96E+07
209.73,1.04E+07
209.77,5.08E+06
209.82,1.88E+06
209.86,7.84E+05
209.9,3.04E+05
209.94,1.09E+05
209.99,2.75E+04
210.03,8.39E+03
210.07,2.38E+03
210.11,6.28E+02
210.16,1.07E+02
210.2,2.40E+01
210.24,4.99E+00
210.28,9.66E-01
210.33,1.12E-01
210.37,1.84E-02
210.41,2.80E-03
210.45,3.97E-04
210.5,3.12E-05
210.54,3.76E-06
210.58,4.20E-07
210.62,4.37E-08
210.84,3.49E-09
210.88,3.40E-08
210.92,3.08E-07
210.96,2.60E-06
211.01,3.38E-05
211.05,2.43E-04
211.09,1.63E-03
211.13,1.02E-02
211.18,9.08E-02
211.22,4.83E-01
211.26,2.39E+00
211.3,1.10E+01
211.35,6.75E+01
211.39,2.65E+02
211.43,9.71E+02
211.47,3.31E+03
211.52,1.39E+04
211.56,4.03E+04
211.6,1.09E+05
211.64,2.75E+05
211.69,7.90E+05
211.73,1.70E+06
211.77,3.40E+06
211.81,6.33E+06
211.86,1.25E+07
211.9,1.99E+07
211.94,2.95E+07
211.98,4.09E+07
212.03,5.63E+07
212.07,6.81E+07
212.11,7.87E+07
212.15,8.84E+07
212.2,1.02E+08
212.24,1.17E+08
212.28,1.39E+08
212.32,1.69E+08
212.37,2.15E+08
212.41,2.56E+08
212.45,2.95E+08
212.49,3.29E+08
212.54,3.69E+08
212.58,4.07E+08
212.62,4.57E+08
212.66,5.28E+08
212.71,6.42E+08
212.75,7.41E+08
212.79,8.27E+08
212.83,8.79E+08
212.88,8.74E+08
212.92,8.09E+08
212.96,6.99E+08
213,5.65E+08
213.05,3.92E+08
213.09,2.70E+08
213.13,1.74E+08
213.17,1.04E+08
213.22,4.98E+07
213.26,2.56E+07
213.3,1.27E+07
213.34,6.79E+06
213.39,5.93E+06
213.43,9.82E+06
213.47,1.90E+07
213.51,3.59E+07
213.56,7.29E+07
213.6,1.19E+08
213.64,1.81E+08
213.68,2.57E+08
213.73,3.60E+08
213.77,4.37E+08
213.81,4.94E+08
213.85,5.20E+08
213.9,5.04E+08
213.94,4.54E+08
213.98,3.81E+08
214.02,2.98E+08
214.07,1.99E+08
214.11,1.33E+08
214.15,8.29E+07
214.19,4.83E+07
214.24,2.23E+07
214.28,1.13E+07
214.32,5.81E+06
214.36,3.71E+06
214.41,4.25E+06
214.45,6.77E+06
214.49,1.12E+07
214.53,1.78E+07
214.58,2.90E+07
214.62,3.96E+07
214.66,5.05E+07
214.7,6.01E+07
214.75,6.77E+07
214.79,6.89E+07
214.83,6.54E+07
214.87,5.79E+07
214.92,4.52E+07
214.96,3.42E+07
215,2.42E+07
215.04,1.60E+07
215.09,8.60E+06
215.13,4.87E+06
215.17,2.61E+06
215.21,1.42E+06
215.26,1.05E+06
215.3,1.69E+06
215.34,3.68E+06
215.38,8.17E+06
215.43,2.06E+07
215.47,4.03E+07
215.51,7.39E+07
215.56,1.44E+08
215.6,2.28E+08
215.64,3.40E+08
215.68,4.75E+08
215.73,6.62E+08
215.77,8.10E+08
215.81,9.39E+08
215.85,1.04E+09
215.9,1.11E+09
215.94,1.14E+09
215.98,1.14E+09
216.02,1.13E+09
216.07,1.12E+09
216.11,1.15E+09
216.15,1.26E+09
216.19,1.50E+09
216.24,2.15E+09
216.28,3.06E+09
216.32,4.39E+09
216.36,6.14E+09
216.41,8.74E+09
216.45,1.09E+10
216.49,1.27E+10
216.53,1.39E+10
216.58,1.44E+10
216.62,1.40E+10
216.66,1.30E+10
216.7,1.17E+10
216.75,1.02E+10
216.79,9.31E+09
216.83,8.65E+09
216.87,8.12E+09
216.92,7.42E+09
216.96,6.71E+09
217,5.83E+09
217.04,4.87E+09
217.09,3.80E+09
217.13,3.25E+09
217.17,3.12E+09
217.21,3.52E+09
217.26,4.79E+09
217.3,6.33E+09
217.34,8.13E+09
217.38,9.93E+09
217.43,1.17E+10
217.47,1.24E+10
217.51,1.23E+10
217.55,1.14E+10
217.6,9.51E+09
217.64,7.61E+09
217.68,5.69E+09
217.72,3.99E+09
217.77,2.33E+09
217.81,1.41E+09
217.85,7.95E+08
217.89,4.24E+08
217.94,1.90E+08
217.98,1.20E+08
218.02,1.24E+08
218.06,1.96E+08
218.11,4.05E+08
218.15,6.99E+08
218.19,1.14E+09
218.23,1.73E+09
218.28,2.65E+09
218.32,3.47E+09
218.36,4.24E+09
218.4,4.85E+09
218.45,5.22E+09
218.49,5.13E+09
218.53,4.72E+09
218.57,4.06E+09
218.62,3.06E+09
218.66,2.27E+09
218.7,1.57E+09
218.74,1.03E+09
218.79,5.60E+08
218.83,3.34E+08
218.87,2.04E+08
218.91,1.37E+08
218.96,1.01E+08
219,9.00E+07
219.04,8.29E+07
219.08,7.50E+07
219.13,6.19E+07
219.17,4.97E+07
219.21,3.76E+07
219.25,2.70E+07
219.3,1.75E+07
219.34,1.34E+07
219.38,1.30E+07
219.42,1.64E+07
219.47,2.64E+07
219.51,3.92E+07
219.55,5.63E+07
219.59,7.78E+07
219.64,1.13E+08
219.68,1.51E+08
219.72,2.08E+08
219.76,2.98E+08
219.81,4.91E+08
219.85,7.37E+08
219.89,1.09E+09
219.93,1.54E+09
219.98,2.21E+09
220.02,2.77E+09
220.06,3.26E+09
220.1,3.59E+09
220.15,3.72E+09
220.19,3.58E+09
220.23,3.26E+09
220.27,2.87E+09
220.32,2.44E+09
220.36,2.29E+09
220.4,2.41E+09
220.44,2.83E+09
220.49,3.72E+09
220.53,4.62E+09
220.57,5.52E+09
220.61,6.26E+09
220.66,6.76E+09
220.7,6.73E+09
220.74,6.36E+09
220.78,5.73E+09
220.83,4.81E+09
220.87,4.12E+09
220.91,3.57E+09
220.95,3.16E+09
221,2.81E+09
221.04,2.58E+09
221.08,2.34E+09
221.12,2.09E+09
221.17,1.81E+09
221.21,1.71E+09
221.25,1.87E+09
221.29,2.44E+09
221.34,3.98E+09
221.38,6.03E+09
221.42,8.86E+09
221.46,1.24E+10
221.51,1.73E+10
221.55,2.10E+10
221.59,2.39E+10
221.63,2.55E+10
221.68,2.54E+10
221.72,2.35E+10
221.76,2.05E+10
221.8,1.69E+10
221.85,1.24E+10
221.89,9.39E+09
221.93,7.15E+09
221.97,5.72E+09
222.02,4.98E+09
222.06,5.05E+09
222.1,5.57E+09
222.14,6.41E+09
222.19,7.76E+09
222.23,8.95E+09
222.27,1.01E+10
222.32,1.15E+10
222.36,1.24E+10
222.4,1.30E+10
222.44,1.33E+10
222.49,1.32E+10
222.53,1.26E+10
222.57,1.17E+10
222.61,1.04E+10
222.66,8.52E+09
222.7,6.91E+09
222.74,5.36E+09
222.78,3.96E+09
222.83,2.53E+09
222.87,1.66E+09
222.91,1.04E+09
222.95,6.13E+08
223,2.93E+08
223.04,1.52E+08
223.08,7.42E+07
223.12,3.41E+07
223.17,1.19E+07
223.21,4.75E+06
223.25,1.79E+06
223.29,6.32E+05
223.34,1.58E+05
223.38,4.83E+04
223.42,1.39E+04
223.46,3.75E+03
223.51,6.69E+02
223.55,1.67E+02
223.59,8.01E+01
223.63,1.82E+02
223.68,8.47E+02
223.72,2.78E+03
223.76,8.60E+03
223.8,2.49E+04
223.85,8.61E+04
223.89,2.16E+05
223.93,5.10E+05
223.97,1.13E+06
224.02,2.78E+06
224.06,5.34E+06
224.1,9.60E+06
224.14,1.62E+07
224.19,2.86E+07
224.23,4.18E+07
224.27,5.74E+07
224.31,7.41E+07
224.36,9.30E+07
224.4,1.04E+08
224.44,1.09E+08
224.48,1.07E+08
224.53,9.62E+07
224.57,8.21E+07
224.61,6.58E+07
224.65,4.96E+07
224.7,3.23E+07
224.74,2.25E+07
224.78,1.77E+07
224.82,2.00E+07
224.87,3.99E+07
224.91,8.07E+07
224.95,1.61E+08
224.99,3.06E+08
225.04,6.28E+08
225.08,1.04E+09
225.12,1.61E+09
225.16,2.36E+09
225.21,3.46E+09
225.25,4.38E+09
225.29,5.21E+09
225.33,5.82E+09
225.38,6.12E+09
225.42,5.94E+09
225.46,5.41E+09
225.5,4.63E+09
225.55,3.50E+09
225.59,2.61E+09
225.63,1.83E+09
225.67,1.22E+09
225.72,6.85E+08
225.76,4.16E+08
225.8,2.51E+08
225.84,1.57E+08
225.89,1.01E+08
225.93,9.17E+07
225.97,1.12E+08
226.01,1.73E+08
226.06,3.41E+08
226.1,5.87E+08
226.14,9.70E+08
226.18,1.52E+09
226.23,2.44E+09
226.27,3.34E+09
226.31,4.28E+09
226.35,5.16E+09
226.4,5.98E+09
226.44,6.28E+09
226.48,6.20E+09
226.52,5.78E+09
226.57,4.93E+09
226.61,4.17E+09
226.65,3.54E+09
226.69,3.19E+09
226.74,3.30E+09
226.78,3.86E+09
226.82,4.81E+09
226.86,6.03E+09
226.91,7.62E+09
226.95,8.70E+09
226.99,9.37E+09
227.03,9.51E+09
227.08,8.88E+09
227.12,7.84E+09
227.16,6.51E+09
227.2,5.08E+09
227.25,3.41E+09
227.29,2.32E+09
227.33,1.49E+09
227.37,9.24E+08
227.42,5.31E+08
227.46,4.28E+08
227.5,4.90E+08
227.54,7.14E+08
227.59,1.24E+09
227.63,1.85E+09
227.67,2.63E+09
227.71,3.53E+09
227.76,4.66E+09
227.8,5.44E+09
227.84,5.96E+09
227.88,6.15E+09
227.93,5.86E+09
227.97,5.26E+09
228.01,4.44E+09
228.05,3.53E+09
228.1,2.43E+09
228.14,1.68E+09
228.18,1.10E+09
228.22,7.00E+08
228.27,4.15E+08
228.31,3.40E+08
228.35,3.82E+08
228.39,5.37E+08
228.44,8.89E+08
228.48,1.29E+09
228.52,1.78E+09
228.56,2.31E+09
228.61,2.96E+09
228.65,3.38E+09
228.69,3.66E+09
228.73,3.75E+09
228.78,3.61E+09
228.82,3.34E+09
228.86,2.99E+09
228.9,2.61E+09
228.95,2.15E+09
228.99,1.82E+09
229.03,1.52E+09
229.08,1.21E+09
229.12,1.00E+09
229.16,8.48E+08
229.2,7.67E+08
229.25,8.26E+08
229.29,1.07E+09
229.33,1.57E+09
229.37,2.40E+09
229.42,4.02E+09
229.46,5.84E+09
229.5,8.09E+09
229.54,1.07E+10
229.59,1.40E+10
229.63,1.63E+10
229.67,1.81E+10
229.71,1.91E+10
229.76,1.90E+10
229.8,1.79E+10
229.84,1.61E+10
229.88,1.39E+10
229.93,1.12E+10
229.97,9.36E+09
230.01,8.10E+09
230.05,7.54E+09
230.1,7.79E+09
230.14,8.56E+09
230.18,9.60E+09
230.22,1.06E+10
230.27,1.14E+10
230.31,1.14E+10
230.35,1.08E+10
230.39,9.71E+09
230.44,7.80E+09
230.48,6.13E+09
230.52,4.54E+09
230.56,3.18E+09
230.61,1.89E+09
230.65,1.18E+09
230.69,7.15E+08
230.73,4.36E+08
230.78,2.68E+08
230.82,2.34E+08
230.86,2.70E+08
230.9,3.74E+08
230.95,6.07E+08
230.99,8.88E+08
231.03,1.26E+09
231.07,1.71E+09
231.12,2.40E+09
