Wavelength,Spectra,,
170.49,1.35E-11,,
170.53,2.21E-10,,
170.57,3.27E-09,,
170.62,8.10E-08,,
170.66,9.36E-07,,
170.7,9.69E-06,,
170.74,9.01E-05,,
170.79,1.25E-03,,
170.83,9.13E-03,,
170.87,5.96E-02,,
170.91,3.49E-01,,
170.96,2.72E+00,,
171,1.25E+01,,
171.04,5.13E+01,,
171.08,1.89E+02,,
171.13,8.30E+02,,
171.17,2.40E+03,,
171.21,6.21E+03,,
171.25,1.44E+04,,
171.3,3.55E+04,,
171.34,6.45E+04,,
171.38,1.05E+05,,
171.42,1.54E+05,,
171.47,2.13E+05,,
171.51,2.44E+05,,
171.55,2.50E+05,,
171.59,2.31E+05,,
171.64,1.79E+05,,
171.68,1.29E+05,,
171.72,8.35E+04,,
171.76,4.85E+04,,
171.81,2.11E+04,,
171.85,9.69E+03,,
171.89,4.30E+03,,
171.93,2.74E+03,,
171.98,5.47E+03,,
172.02,1.36E+04,,
172.06,3.20E+04,,
172.1,6.79E+04,,
172.15,1.50E+05,,
172.19,2.50E+05,,
172.23,3.74E+05,,
172.27,5.03E+05,,
172.32,6.26E+05,,
172.36,6.61E+05,,
172.4,6.26E+05,,
172.44,5.33E+05,,
172.49,3.74E+05,,
172.53,2.50E+05,,
172.57,1.50E+05,,
172.61,8.06E+04,,
172.66,3.19E+04,,
172.7,1.35E+04,,
172.74,5.12E+03,,
172.78,1.74E+03,,
172.83,3.90E+02,,
172.87,1.04E+02,,
172.91,2.50E+01,,
172.95,5.39E+00,,
173,6.80E-01,,
173.04,1.15E-01,,
173.08,1.75E-02,,
173.12,2.38E-03,,
173.17,1.69E-04,,
173.21,1.81E-05,,
173.25,1.74E-06,,
173.29,1.50E-07,,
173.34,6.03E-09,,
173.38,4.08E-10,,
173.42,2.48E-11,,
192.17,1.23E-08,,
192.21,1.47E-07,,
192.26,2.90E-06,,
192.3,2.87E-05,,
192.34,2.60E-04,,
192.38,2.16E-03,,
192.43,2.71E-02,,
192.47,1.86E-01,,
192.51,1.17E+00,,
192.55,6.76E+00,,
192.6,5.38E+01,,
192.64,2.56E+02,,
192.68,1.12E+03,,
192.72,4.51E+03,,
192.77,2.28E+04,,
192.81,7.54E+04,,
192.85,2.30E+05,,
192.89,6.41E+05,,
192.94,2.05E+06,,
192.98,4.73E+06,,
193.02,1.00E+07,,
193.06,1.94E+07,,
193.11,3.95E+07,,
193.15,6.32E+07,,
193.19,9.29E+07,,
193.23,1.25E+08,,
193.28,1.62E+08,,
193.32,1.80E+08,,
193.36,1.84E+08,,
193.4,1.72E+08,,
193.45,1.41E+08,,
193.49,1.09E+08,,
193.53,7.74E+07,,
193.57,5.05E+07,,
193.62,2.62E+07,,
193.66,1.41E+07,,
193.7,6.95E+06,,
193.74,3.15E+06,,
193.79,1.04E+06,,
193.83,3.88E+05,,
193.87,1.33E+05,,
193.91,4.19E+04,,
193.96,8.76E+03,,
194,2.28E+03,,
194.04,5.42E+02,,
194.08,1.19E+02,,
194.13,1.58E+01,,
194.17,2.84E+00,,
194.21,4.71E-01,,
194.25,7.17E-02,,
194.3,6.04E-03,,
194.34,7.57E-04,,
194.38,8.72E-05,,
194.42,9.22E-06,,
194.47,4.93E-07,,
194.51,4.30E-08,,
198.21,1.72E-08,,
198.25,1.92E-07,,
198.29,1.98E-06,,
198.34,3.27E-05,,
198.38,2.81E-04,,
198.42,2.23E-03,,
198.46,1.63E-02,,
198.51,1.76E-01,,
198.55,1.08E+00,,
198.59,6.06E+00,,
198.63,3.15E+01,,
198.68,2.21E+02,,
198.72,9.61E+02,,
198.76,3.85E+03,,
198.8,1.42E+04,,
198.85,6.52E+04,,
198.89,2.01E+05,,
198.93,5.72E+05,,
198.97,1.50E+06,,
199.02,4.48E+06,,
199.06,9.83E+06,,
199.1,1.99E+07,,
199.14,3.71E+07,,
199.19,7.22E+07,,
199.23,1.12E+08,,
199.27,1.61E+08,,
199.31,2.14E+08,,
199.36,2.72E+08,,
199.4,3.00E+08,,
199.44,3.06E+08,,
199.48,2.88E+08,,
199.53,2.39E+08,,
199.57,1.88E+08,,
199.61,1.37E+08,,
199.65,9.37E+07,,
199.7,5.66E+07,,
199.74,4.24E+07,,
199.78,4.20E+07,,
199.82,5.45E+07,,
199.87,8.62E+07,,
199.91,1.21E+08,,
199.95,1.59E+08,,
199.99,1.94E+08,,
200.04,2.23E+08,,
200.08,2.27E+08,,
200.12,2.14E+08,,
200.16,1.86E+08,,
200.21,1.40E+08,,
200.25,1.01E+08,,
200.29,6.79E+07,,
200.33,4.21E+07,,
200.38,2.06E+07,,
200.42,1.07E+07,,
200.46,5.09E+06,,
200.5,2.24E+06,,
200.55,7.20E+05,,
200.59,2.65E+05,,
200.63,9.01E+04,,
200.67,2.83E+04,,
200.72,5.93E+03,,
200.76,1.56E+03,,
200.8,4.14E+02,,
200.84,2.55E+02,,
200.89,1.03E+03,,
200.93,3.88E+03,,
200.97,1.37E+04,,
201.01,4.45E+04,,
201.06,1.74E+05,,
201.1,4.76E+05,,
201.14,1.20E+06,,
201.18,2.80E+06,,
201.23,7.21E+06,,
201.27,1.41E+07,,
201.31,2.54E+07,,
201.35,4.24E+07,,
201.4,7.20E+07,,
201.44,1.01E+08,,
201.48,1.30E+08,,
201.52,1.55E+08,,
201.57,1.73E+08,,
201.61,1.73E+08,,
201.65,1.60E+08,,
201.69,1.37E+08,,
201.74,1.01E+08,,
201.78,7.20E+07,,
201.82,4.76E+07,,
201.86,2.91E+07,,
201.91,1.41E+07,,
201.95,7.21E+06,,
201.99,3.41E+06,,
202.03,1.49E+06,,
202.08,4.76E+05,,
202.12,1.74E+05,,
202.16,5.90E+04,,
202.21,1.37E+04,,
202.25,3.87E+03,,
202.29,1.02E+03,,
202.33,2.46E+02,,
202.38,3.75E+01,,
202.42,7.62E+00,,
202.46,1.53E+00,,
202.5,8.17E-01,,
202.55,4.63E+00,,
202.59,2.25E+01,,
202.63,1.02E+02,,
202.67,4.26E+02,,
202.72,2.28E+03,,
202.76,8.02E+03,,
202.8,2.61E+04,,
202.84,7.86E+04,,
202.89,2.80E+05,,
202.93,7.08E+05,,
202.97,1.66E+06,,
203.01,3.59E+06,,
203.06,8.47E+06,,
203.1,1.54E+07,,
203.14,2.60E+07,,
203.18,4.06E+07,,
203.23,6.34E+07,,
203.27,8.32E+07,,
203.31,1.01E+08,,
203.35,1.13E+08,,
203.4,1.18E+08,,
203.44,1.11E+08,,
203.48,9.69E+07,,
203.52,7.83E+07,,
203.57,5.38E+07,,
203.61,3.66E+07,,
203.65,2.30E+07,,
203.69,1.34E+07,,
203.74,6.10E+06,,
203.78,2.98E+06,,
203.82,1.35E+06,,
203.86,5.65E+05,,
203.91,1.71E+05,,
203.95,6.01E+04,,
203.99,1.96E+04,,
204.03,5.90E+03,,
204.08,1.18E+03,,
204.12,3.00E+02,,
204.16,7.03E+01,,
204.2,1.53E+01,,
204.25,2.03E+00,,
204.29,3.70E-01,,
204.33,6.24E-02,,
204.37,9.74E-03,,
204.42,8.58E-04,,
204.46,1.13E-04,,
204.5,1.37E-05,,
204.54,1.54E-06,,
204.59,8.99E-08,,
204.63,8.49E-09,,
204.88,2.07E-08,,
204.93,3.61E-07,,
204.97,3.27E-06,,
205.01,2.74E-05,,
205.05,2.14E-04,,
205.1,2.50E-03,,
205.14,1.64E-02,,
205.18,1.00E-01,,
205.22,5.67E-01,,
205.27,4.45E+00,,
205.31,2.12E+01,,
205.35,9.39E+01,,
205.39,3.86E+02,,
205.44,2.03E+03,,
205.48,7.02E+03,,
205.52,2.26E+04,,
205.56,6.73E+04,,
205.61,2.37E+05,,
205.65,5.96E+05,,
205.69,1.39E+06,,
205.73,3.01E+06,,
205.78,7.11E+06,,
205.82,1.30E+07,,
205.86,2.20E+07,,
205.9,3.46E+07,,
205.95,5.48E+07,,
205.99,7.27E+07,,
206.03,8.97E+07,,
206.07,1.03E+08,,
206.12,1.11E+08,,
206.16,1.12E+08,,
206.2,1.09E+08,,
206.24,1.10E+08,,
206.29,1.24E+08,,
206.33,1.56E+08,,
206.37,2.09E+08,,
206.41,2.83E+08,,
206.46,3.93E+08,,
206.5,4.78E+08,,
206.54,5.42E+08,,
206.58,5.73E+08,,
206.63,5.53E+08,,
206.67,4.94E+08,,
206.71,4.09E+08,,
206.75,3.15E+08,,
206.8,2.04E+08,,
206.84,1.33E+08,,
206.88,7.99E+07,,
206.92,4.47E+07,,
206.97,1.95E+07,,
207.01,9.20E+06,,
207.05,4.05E+06,,
207.09,1.68E+06,,
207.14,5.85E+05,,
207.18,3.83E+05,,
207.22,4.70E+05,,
207.26,7.58E+05,,
207.31,1.38E+06,,
207.35,2.07E+06,,
207.39,2.89E+06,,
207.43,3.74E+06,,
207.48,4.67E+06,,
207.52,5.12E+06,,
207.56,5.22E+06,,
207.6,4.94E+06,,
207.65,4.15E+06,,
207.69,3.32E+06,,
207.73,2.47E+06,,
207.77,1.70E+06,,
207.82,9.63E+05,,
207.86,5.62E+05,,
207.9,3.05E+05,,
207.94,1.53E+05,,
207.99,5.84E+04,,
208.03,2.49E+04,,
208.07,9.83E+03,,
208.11,3.61E+03,,
208.16,9.27E+02,,
208.2,2.88E+02,,
208.24,8.29E+01,,
208.28,2.22E+01,,
208.33,3.85E+00,,
208.37,8.71E-01,,
208.41,1.83E-01,,
208.45,3.57E-02,,
208.5,4.17E-03,,
208.54,6.88E-04,,
208.58,1.06E-04,,
208.62,1.50E-05,,
208.67,1.18E-06,,
208.71,1.42E-07,,
208.75,1.59E-08,,
208.8,9.25E-10,,
210.11,1.03E-06,,
210.16,1.67E-05,,
210.2,1.43E-04,,
210.24,1.14E-03,,
210.28,8.48E-03,,
210.33,9.40E-02,,
210.37,5.94E-01,,
210.41,3.50E+00,,
210.45,1.92E+01,,
210.5,1.45E+02,,
210.54,6.77E+02,,
210.58,2.94E+03,,
210.62,1.19E+04,,
210.67,6.16E+04,,
210.71,2.12E+05,,
210.75,6.78E+05,,
210.79,2.02E+06,,
210.84,7.16E+06,,
210.88,1.82E+07,,
210.92,4.29E+07,,
210.96,9.43E+07,,
211.01,2.28E+08,,
211.05,4.27E+08,,
211.09,7.44E+08,,
211.13,1.21E+09,,
211.18,2.00E+09,,
211.22,2.76E+09,,
211.26,3.54E+09,,
211.3,4.23E+09,,
211.35,4.79E+09,,
211.39,4.88E+09,,
211.43,4.62E+09,,
211.47,4.08E+09,,
211.52,3.15E+09,,
211.56,2.37E+09,,
211.6,1.67E+09,,
211.64,1.10E+09,,
211.69,6.21E+08,,
211.73,4.09E+08,,
211.77,3.19E+08,,
211.81,3.23E+08,,
211.86,4.15E+08,,
211.9,5.26E+08,,
211.94,6.41E+08,,
211.98,7.36E+08,,
212.03,7.95E+08,,
212.07,7.81E+08,,
212.11,7.15E+08,,
212.15,6.09E+08,,
212.2,4.52E+08,,
212.24,3.30E+08,,
212.28,2.25E+08,,
212.32,1.45E+08,,
212.37,7.89E+07,,
212.41,4.85E+07,,
212.45,3.17E+07,,
212.49,2.32E+07,,
212.54,1.84E+07,,
212.58,1.61E+07,,
212.62,1.41E+07,,
212.66,1.20E+07,,
212.71,9.35E+06,,
212.75,7.53E+06,,
212.79,6.09E+06,,
212.83,5.05E+06,,
212.88,4.15E+06,,
212.92,3.60E+06,,
212.96,3.08E+06,,
213,2.55E+06,,
213.05,1.88E+06,,
213.09,1.38E+06,,
213.13,9.43E+05,,
213.17,6.05E+05,,
213.22,3.15E+05,,
213.26,1.73E+05,,
213.3,8.82E+04,,
213.34,4.20E+04,,
213.39,1.51E+04,,
213.43,6.12E+03,,
213.47,2.32E+03,,
213.51,8.19E+02,,
213.56,2.02E+02,,
213.6,6.40E+01,,
213.64,3.38E+01,,
213.68,8.44E+01,,
213.73,5.13E+02,,
213.77,2.09E+03,,
213.81,7.98E+03,,
213.85,2.84E+04,,
213.9,1.26E+05,,
213.94,3.82E+05,,
213.98,1.08E+06,,
214.02,2.87E+06,,
214.07,8.79E+06,,
214.11,1.99E+07,,
214.15,4.20E+07,,
214.19,8.28E+07,,
214.24,1.75E+08,,
214.28,2.95E+08,,
214.32,4.64E+08,,
214.36,6.80E+08,,
214.41,9.95E+08,,
214.45,1.25E+09,,
214.49,1.46E+09,,
214.53,1.59E+09,,
214.58,1.61E+09,,
214.62,1.50E+09,,
214.66,1.31E+09,,
214.7,1.06E+09,,
214.75,7.43E+08,,
214.79,5.16E+08,,
214.83,3.34E+08,,
214.87,2.02E+08,,
214.92,9.76E+07,,
214.96,5.05E+07,,
215,2.43E+07,,
215.04,1.10E+07,,
215.09,3.66E+06,,
215.13,1.41E+06,,
215.17,5.05E+05,,
215.21,1.69E+05,,
215.26,3.90E+04,,
215.3,1.12E+04,,
215.34,2.99E+03,,
215.38,7.44E+02,,
215.43,1.19E+02,,
215.47,2.53E+01,,
215.51,5.04E+00,,
215.56,6.83E-01,,
215.6,5.50E-01,,
215.64,2.41E+00,,
215.68,1.20E+01,,
215.73,8.18E+01,,
215.77,3.52E+02,,
215.81,1.42E+03,,
215.85,5.32E+03,,
215.9,2.54E+04,,
215.94,8.19E+04,,
215.98,2.48E+05,,
216.02,7.00E+05,,
216.07,2.33E+06,,
216.11,5.67E+06,,
216.15,1.29E+07,,
216.19,2.74E+07,,
216.24,6.39E+07,,
216.28,1.17E+08,,
216.32,2.00E+08,,
216.36,3.20E+08,,
216.41,5.25E+08,,
216.45,7.23E+08,,
216.49,9.33E+08,,
216.53,1.13E+09,,
216.58,1.30E+09,,
216.62,1.35E+09,,
216.66,1.31E+09,,
216.7,1.19E+09,,
216.75,9.64E+08,,
216.79,7.56E+08,,
216.83,5.56E+08,,
216.87,3.83E+08,,
216.92,2.21E+08,,
216.96,1.35E+08,,
217,7.88E+07,,
217.04,4.57E+07,,
217.09,2.41E+07,,
217.13,1.55E+07,,
217.17,1.07E+07,,
217.21,7.72E+06,,
217.26,5.09E+06,,
217.3,3.52E+06,,
217.34,2.30E+06,,
217.38,1.42E+06,,
217.43,7.11E+05,,
217.47,3.79E+05,,
217.51,1.89E+05,,
217.55,8.79E+04,,
217.6,3.07E+04,,
217.64,1.23E+04,,
217.68,4.59E+03,,
217.72,1.61E+03,,
217.77,4.24E+02,,
217.81,2.64E+02,,
217.85,6.44E+02,,
217.89,2.38E+03,,
217.94,1.17E+04,,
217.98,3.91E+04,,
218.02,1.22E+05,,
218.06,3.56E+05,,
218.11,1.24E+06,,
218.15,3.10E+06,,
218.19,7.28E+06,,
218.23,1.60E+07,,
218.28,3.88E+07,,
218.32,7.34E+07,,
218.36,1.30E+08,,
218.4,2.14E+08,,
218.45,3.65E+08,,
218.49,5.18E+08,,
218.53,6.89E+08,,
218.57,8.56E+08,,
218.62,1.02E+09,,
218.66,1.09E+09,,
218.7,1.09E+09,,
218.74,1.02E+09,,
218.79,8.56E+08,,
218.83,6.89E+08,,
218.87,5.18E+08,,
218.91,3.65E+08,,
218.96,2.14E+08,,
219,1.30E+08,,
219.04,7.34E+07,,
219.08,3.88E+07,,
219.13,1.60E+07,,
219.17,7.28E+06,,
219.21,3.10E+06,,
219.25,1.24E+06,,
219.3,3.56E+05,,
219.34,1.22E+05,,
219.38,3.91E+04,,
219.42,1.19E+04,,
219.47,2.94E+03,,
219.51,2.44E+03,,
219.55,5.69E+03,,
219.59,1.57E+04,,
219.64,5.24E+04,,
219.68,1.28E+05,,
219.72,2.92E+05,,
219.76,6.24E+05,,
219.81,1.47E+06,,
219.85,2.72E+06,,
219.89,4.70E+06,,
219.93,7.62E+06,,
219.98,1.27E+07,,
220.02,1.79E+07,,
220.06,2.35E+07,,
220.1,2.92E+07,,
220.15,3.52E+07,,
220.19,3.83E+07,,
220.23,3.98E+07,,
220.27,3.97E+07,,
220.32,3.79E+07,,
220.36,3.60E+07,,
220.4,3.43E+07,,
220.44,3.31E+07,,
220.49,3.22E+07,,
220.53,3.17E+07,,
220.57,3.09E+07,,
220.61,2.95E+07,,
220.66,2.69E+07,,
220.7,2.41E+07,,
220.74,2.10E+07,,
220.78,1.79E+07,,
220.83,1.42E+07,,
220.87,1.16E+07,,
220.91,9.17E+06,,
220.95,7.08E+06,,
221,4.87E+06,,
221.04,3.44E+06,,
221.08,2.31E+06,,
221.12,1.47E+06,,
221.17,7.73E+05,,
221.21,4.31E+05,,
221.25,2.26E+05,,
221.29,1.12E+05,,
221.34,4.46E+04,,
221.38,2.52E+04,,
221.42,2.56E+04,,
221.46,4.56E+04,,
221.51,1.13E+05,,
221.55,2.27E+05,,
221.59,4.27E+05,,
221.63,7.54E+05,,
221.68,1.40E+06,,
221.72,2.13E+06,,
221.76,3.05E+06,,
221.8,4.09E+06,,
221.85,5.38E+06,,
221.89,6.22E+06,,
221.93,6.75E+06,,
221.97,6.86E+06,,
222.02,6.40E+06,,
222.06,5.63E+06,,
222.1,4.66E+06,,
222.14,3.66E+06,,
222.19,2.59E+06,,
222.23,2.04E+06,,
222.27,1.86E+06,,
222.32,2.35E+06,,
222.36,3.58E+06,,
222.4,6.09E+06,,
222.44,1.09E+07,,
222.49,2.33E+07,,
222.53,4.25E+07,,
222.57,7.57E+07,,
222.61,1.30E+08,,
222.66,2.38E+08,,
222.7,3.64E+08,,
222.74,5.23E+08,,
222.78,7.07E+08,,
222.83,9.44E+08,,
222.87,1.11E+09,,
222.91,1.22E+09,,
222.95,1.26E+09,,
223,1.20E+09,,
223.04,1.07E+09,,
223.08,8.96E+08,,
223.12,7.04E+08,,
223.17,4.75E+08,,
223.21,3.23E+08,,
223.25,2.06E+08,,
223.29,1.23E+08,,
223.34,5.90E+07,,
223.38,3.05E+07,,
223.42,1.48E+07,,
223.46,6.73E+06,,
223.51,2.32E+06,,
223.55,9.58E+05,,
223.59,4.53E+05,,
223.63,3.54E+05,,
223.68,5.42E+05,,
223.72,8.94E+05,,
223.76,1.44E+06,,
223.8,2.20E+06,,
223.85,3.47E+06,,
223.89,4.74E+06,,
223.93,6.30E+06,,
223.97,8.42E+06,,
224.02,1.33E+07,,
224.06,2.20E+07,,
224.1,4.12E+07,,
224.14,8.22E+07,,
224.19,1.96E+08,,
224.23,3.79E+08,,
224.27,6.96E+08,,
224.31,1.21E+09,,
224.36,2.21E+09,,
224.4,3.34E+09,,
224.44,4.76E+09,,
224.48,6.37E+09,,
224.53,8.43E+09,,
224.57,9.88E+09,,
224.61,1.09E+10,,
224.65,1.15E+10,,
224.7,1.13E+10,,
224.74,1.06E+10,,
224.78,9.60E+09,,
224.82,8.34E+09,,
224.87,6.68E+09,,
224.91,5.41E+09,,
224.95,4.24E+09,,
224.99,3.23E+09,,
225.04,2.17E+09,,
225.08,1.52E+09,,
225.12,1.01E+09,,
225.16,6.49E+08,,
225.21,3.55E+08,,
225.25,2.17E+08,,
225.29,1.42E+08,,
225.33,1.09E+08,,
225.38,1.13E+08,,
225.42,1.46E+08,,
225.46,2.05E+08,,
225.5,2.88E+08,,
225.55,4.22E+08,,
225.59,5.43E+08,,
225.63,6.61E+08,,
225.67,7.58E+08,,
225.72,8.26E+08,,
225.76,8.25E+08,,
225.8,7.74E+08,,
225.84,6.82E+08,,
225.89,5.34E+08,,
225.93,4.09E+08,,
225.97,2.94E+08,,
226.01,1.99E+08,,
226.06,1.11E+08,,
226.1,6.53E+07,,
226.14,3.60E+07,,
226.18,1.86E+07,,
226.23,7.55E+06,,
226.27,3.50E+06,,
226.31,1.65E+06,,
226.35,9.16E+05,,
226.4,6.92E+05,,
226.44,7.37E+05,,
226.48,8.40E+05,,
226.52,9.36E+05,,
226.57,9.98E+05,,
226.61,9.82E+05,,
226.65,9.08E+05,,
226.69,7.89E+05,,
226.74,6.07E+05,,
226.78,4.59E+05,,
226.82,3.27E+05,,
226.86,2.22E+05,,
226.91,1.38E+05,,
226.95,1.14E+05,,
226.99,1.42E+05,,
227.03,2.49E+05,,
227.08,5.73E+05,,
227.12,1.09E+06,,
227.16,1.96E+06,,
227.2,3.32E+06,,
227.25,5.93E+06,,
227.29,8.82E+06,,
227.33,1.24E+07,,
227.37,1.67E+07,,
227.42,2.29E+07,,
227.46,2.90E+07,,
227.5,3.72E+07,,
227.54,4.98E+07,,
227.59,7.79E+07,,
227.63,1.18E+08,,
227.67,1.80E+08,,
227.71,2.73E+08,,
227.76,4.36E+08,,
227.8,6.02E+08,,
227.84,7.86E+08,,
227.88,9.70E+08,,
227.93,1.16E+09,,
227.97,1.25E+09,,
228.01,1.27E+09,,
228.05,1.21E+09,,
228.1,1.05E+09,,
228.14,8.71E+08,,
228.18,6.81E+08,,
228.22,5.00E+08,,
228.27,3.12E+08,,
228.31,2.00E+08,,
228.35,1.20E+08,,
228.39,6.81E+07,,
228.44,3.06E+07,,
228.48,1.51E+07,,
228.52,6.99E+06,,
228.56,3.05E+06,,
228.61,9.88E+05,,
228.65,3.75E+05,,
228.69,1.34E+05,,
228.73,4.48E+04,,
228.78,1.05E+04,,
228.82,3.11E+03,,
228.86,1.00E+03,,
228.9,7.02E+02,,
228.95,1.78E+03,,
228.99,4.55E+03,,
229.03,1.11E+04,,
229.08,3.12E+04,,
229.12,6.67E+04,,
229.16,1.34E+05,,
229.2,2.54E+05,,
229.25,5.17E+05,,
229.29,8.53E+05,,
229.33,1.32E+06,,
229.37,1.94E+06,,
229.42,2.86E+06,,
229.46,3.64E+06,,
229.5,4.37E+06,,
229.54,4.93E+06,,
229.59,5.27E+06,,
229.63,5.19E+06,,
229.67,4.81E+06,,
229.71,4.20E+06,,
229.76,3.25E+06,,
229.8,2.47E+06,,
229.84,1.77E+06,,
229.88,1.19E+06,,
229.93,6.69E+05,,
229.97,3.93E+05,,
230.01,2.18E+05,,
230.05,1.13E+05,,
230.1,4.60E+04,,
230.14,2.09E+04,,
230.18,8.93E+03,,
230.22,3.59E+03,,
230.27,1.06E+03,,
230.31,3.71E+02,,
230.35,1.23E+02,,
230.39,3.81E+01,,
230.44,8.12E+00,,
230.48,2.20E+00,,
230.52,5.70E-01,,
230.56,1.82E-01,,
230.61,3.99E-01,,
230.65,1.87E+00,,
230.69,8.64E+00,,
230.73,3.78E+01,,
230.78,2.20E+02,,
230.82,8.40E+02,,
230.86,3.03E+03,,
230.9,1.03E+04,,
230.95,4.35E+04,,
230.99,1.29E+05,,
231.03,3.61E+05,,
231.07,9.51E+05,,
231.12,2.94E+06,,
231.16,6.77E+06,,
231.2,1.47E+07,,
231.24,3.01E+07,,
231.29,6.77E+07,,
231.33,1.21E+08,,
231.37,2.05E+08,,
231.41,3.26E+08,,
231.46,5.37E+08,,
231.5,7.53E+08,,
231.54,9.99E+08,,
231.58,1.26E+09,,
231.63,1.58E+09,,
231.67,1.81E+09,,
231.71,2.02E+09,,
231.75,2.20E+09,,
231.8,2.43E+09,,
231.84,2.61E+09,,
231.88,2.80E+09,,
231.92,2.97E+09,,
231.97,3.10E+09,,
232.01,3.10E+09,,
232.05,3.00E+09,,
232.09,2.80E+09,,
232.14,2.46E+09,,
232.18,2.20E+09,,
232.22,1.98E+09,,
232.26,1.86E+09,,
232.31,1.85E+09,,
232.35,1.92E+09,,
232.39,2.02E+09,,
232.43,2.09E+09,,
232.48,2.08E+09,,
232.52,1.97E+09,,
232.56,1.77E+09,,
232.6,1.50E+09,,
232.65,1.15E+09,,
232.69,8.84E+08,,
232.73,6.78E+08,,
232.77,5.52E+08,,
232.82,5.23E+08,,
232.86,6.06E+08,,
232.9,7.74E+08,,
232.94,1.01E+09,,
232.99,1.36E+09,,
233.03,1.64E+09,,
233.07,1.87E+09,,
233.11,2.01E+09,,
233.16,2.03E+09,,
233.2,1.91E+09,,
233.24,1.70E+09,,
233.28,1.42E+09,,
233.33,1.05E+09,,
233.37,7.71E+08,,
233.41,5.34E+08,,
233.45,3.48E+08,,
233.5,1.88E+08,,
233.54,1.07E+08,,
233.58,5.79E+07,,
233.62,2.94E+07,,
233.67,1.16E+07,,
233.71,5.17E+06,,
233.75,2.17E+06,,
233.79,8.59E+05,,
233.84,2.48E+05,,
233.88,8.59E+04,,
233.92,2.81E+04,,
233.96,8.65E+03,,
234.01,1.83E+03,,
234.05,4.93E+02,,
234.09,1.25E+02,,
234.13,3.01E+01,,
234.18,4.65E+00,,
234.22,9.77E-01,,
234.26,1.94E-01,,
234.3,3.61E-02,,
234.35,4.08E-03,,
234.39,6.68E-04,,
234.43,1.05E-04,,
234.47,2.91E-05,,
234.52,1.46E-04,,
234.56,8.74E-04,,
234.6,4.99E-03,,
234.64,2.69E-02,,
234.69,2.03E-01,,
234.73,9.62E-01,,
234.77,4.30E+00,,
234.81,1.81E+01,,
234.86,1.01E+02,,
234.9,3.74E+02,,
234.94,1.31E+03,,
234.98,4.32E+03,,
235.03,1.78E+04,,
235.07,5.16E+04,,
235.11,1.41E+05,,
235.15,3.66E+05,,
235.2,1.11E+06,,
235.24,2.52E+06,,
235.28,5.40E+06,,
235.32,1.10E+07,,
235.37,2.44E+07,,
235.41,4.36E+07,,
235.45,7.33E+07,,
235.49,1.17E+08,,
235.54,1.92E+08,,
235.58,2.68E+08,,
235.62,3.54E+08,,
235.66,4.41E+08,,
235.71,5.37E+08,,
235.75,5.89E+08,,
235.79,6.11E+08,,
235.84,5.91E+08,,
235.88,5.41E+08,,
235.92,4.68E+08,,
235.96,3.85E+08,,
236.01,2.81E+08,,
236.05,2.09E+08,,
236.09,1.51E+08,,
236.13,1.08E+08,,
236.18,7.46E+07,,
236.22,5.98E+07,,
236.26,5.22E+07,,
236.3,4.86E+07,,
236.35,4.66E+07,,
236.39,4.51E+07,,
236.43,4.28E+07,,
236.47,3.95E+07,,
236.52,3.40E+07,,
236.56,2.90E+07,,
236.6,2.38E+07,,
236.64,1.88E+07,,
236.69,1.33E+07,,
236.73,9.61E+06,,
236.77,6.67E+06,,
236.81,4.44E+06,,
236.86,2.53E+06,,
236.9,1.55E+06,,
236.94,9.42E+05,,
236.98,6.12E+05,,
237.03,4.72E+05,,
237.07,5.15E+05,,
237.11,6.55E+05,,
237.15,8.64E+05,,
237.2,1.18E+06,,
237.24,1.43E+06,,
237.28,1.65E+06,,
237.32,1.79E+06,,
237.37,1.84E+06,,
237.41,1.77E+06,,
237.45,1.60E+06,,
237.49,1.37E+06,,
237.54,1.04E+06,,
237.58,7.82E+05,,
237.62,5.57E+05,,
237.66,3.76E+05,,
237.71,2.16E+05,,
237.75,1.38E+05,,
237.79,9.86E+04,,
237.83,9.59E+04,,
237.88,1.47E+05,,
237.92,2.43E+05,,
237.96,4.00E+05,,
238,6.33E+05,,
238.05,1.04E+06,,
238.09,1.46E+06,,
238.13,1.94E+06,,
238.17,2.43E+06,,
238.22,2.97E+06,,
238.26,3.28E+06,,
238.3,3.42E+06,,
238.34,3.38E+06,,
238.39,3.07E+06,,
238.43,2.67E+06,,
238.47,2.19E+06,,
238.51,1.71E+06,,
238.56,1.18E+06,,
238.6,8.53E+05,,
238.64,6.35E+05,,
238.68,5.32E+05,,
238.73,5.60E+05,,
238.77,6.98E+05,,
238.81,9.26E+05,,
238.85,1.23E+06,,
238.9,1.67E+06,,
238.94,2.04E+06,,
238.98,2.38E+06,,
239.02,2.68E+06,,
239.07,2.94E+06,,
239.11,3.05E+06,,
239.15,3.08E+06,,
239.19,3.01E+06,,
239.24,2.82E+06,,
239.28,2.59E+06,,
