Wavelength,Spectra
211.39,4.66E-08
211.43,4.33E-07
211.47,3.75E-06
211.52,5.03E-05
211.56,3.71E-04
211.6,2.55E-03
211.64,1.64E-02
211.69,1.51E-01
211.73,8.25E-01
211.77,4.20E+00
211.81,1.99E+01
211.86,1.26E+02
211.9,5.10E+02
211.94,1.92E+03
211.98,6.75E+03
212.03,2.94E+04
212.07,8.80E+04
212.11,2.45E+05
212.15,6.38E+05
212.2,1.91E+06
212.24,4.23E+06
212.28,8.73E+06
212.32,1.68E+07
212.37,3.44E+07
212.41,5.65E+07
212.45,8.64E+07
212.49,1.23E+08
212.54,1.73E+08
212.58,2.11E+08
212.62,2.38E+08
212.66,2.51E+08
212.71,2.43E+08
212.75,2.19E+08
212.79,1.83E+08
212.83,1.43E+08
212.88,9.50E+07
212.92,6.33E+07
212.96,3.92E+07
213,2.27E+07
213.05,1.03E+07
213.09,5.10E+06
213.13,2.34E+06
213.17,1.00E+06
213.22,3.14E+05
213.26,1.15E+05
213.3,3.89E+04
213.34,1.23E+04
213.39,2.65E+03
213.43,7.16E+02
213.47,1.80E+02
213.51,4.22E+01
213.56,6.24E+00
213.6,1.25E+00
213.64,2.32E-01
213.68,4.03E-02
213.73,4.09E-03
213.77,6.06E-04
213.81,8.35E-05
213.85,1.07E-05
213.9,7.47E-07
213.94,8.19E-08
233.84,5.51E-08
233.88,4.17E-07
233.92,2.98E-06
233.96,2.01E-05
234.01,2.01E-04
234.05,1.19E-03
234.09,6.63E-03
234.13,3.50E-02
234.18,2.57E-01
234.22,1.19E+00
234.26,5.20E+00
234.3,2.15E+01
234.35,1.16E+02
234.39,4.21E+02
234.43,1.44E+03
234.47,4.63E+03
234.52,1.85E+04
234.56,5.22E+04
234.6,1.40E+05
234.64,3.52E+05
234.69,1.03E+06
234.73,2.28E+06
234.77,4.77E+06
234.81,9.42E+06
234.86,2.03E+07
234.9,3.52E+07
234.94,5.75E+07
234.98,8.86E+07
235.03,1.41E+08
235.07,1.90E+08
235.11,2.43E+08
235.15,2.94E+08
235.2,3.42E+08
235.24,3.63E+08
235.28,3.63E+08
235.32,3.42E+08
235.37,2.94E+08
235.41,2.43E+08
235.45,1.90E+08
235.49,1.41E+08
235.54,8.86E+07
235.58,5.75E+07
235.62,3.52E+07
235.66,2.03E+07
235.71,9.42E+06
235.75,4.77E+06
235.79,2.28E+06
235.84,8.38E+05
235.88,3.52E+05
235.92,1.40E+05
235.96,5.22E+04
236.01,1.41E+04
236.05,4.63E+03
236.09,1.44E+03
236.13,4.21E+02
236.18,8.35E+01
236.22,2.15E+01
236.26,5.20E+00
236.3,1.19E+00
236.35,1.74E-01
236.39,3.50E-02
236.43,6.63E-03
236.47,1.19E-03
236.52,1.28E-04
236.56,2.01E-05
236.6,2.98E-06
236.64,4.17E-07
236.69,3.29E-08
241.32,2.50E-06
241.36,1.79E-05
241.4,1.21E-04
241.45,1.23E-03
241.49,7.35E-03
241.53,4.18E-02
241.57,2.25E-01
241.62,1.71E+00
241.66,8.13E+00
241.7,3.67E+01
241.74,1.57E+02
241.79,8.91E+02
241.83,3.37E+03
241.87,1.21E+04
241.91,4.09E+04
241.96,1.75E+05
242,5.24E+05
242.04,1.49E+06
242.08,4.01E+06
242.13,1.28E+07
242.17,3.06E+07
242.21,6.90E+07
242.25,1.48E+08
242.3,3.53E+08
242.34,6.69E+08
242.38,1.20E+09
242.42,2.04E+09
242.47,3.65E+09
242.51,5.49E+09
242.55,7.81E+09
242.6,1.13E+10
242.64,1.42E+10
242.68,1.69E+10
242.72,1.91E+10
242.77,2.06E+10
242.81,2.06E+10
242.85,1.95E+10
242.89,1.75E+10
242.94,1.42E+10
242.98,1.13E+10
243.02,8.46E+09
243.06,6.03E+09
243.11,3.65E+09
243.15,2.30E+09
243.19,1.38E+09
243.23,7.78E+08
243.28,3.53E+08
243.32,1.77E+08
243.36,8.39E+07
243.4,3.77E+07
243.45,1.28E+07
243.49,5.10E+06
243.53,1.92E+06
243.57,6.84E+05
243.62,1.75E+05
243.66,5.51E+04
243.7,1.65E+04
243.74,4.66E+03
243.79,8.91E+02
243.83,2.23E+02
243.87,5.30E+01
243.91,1.19E+01
243.96,1.71E+00
244,3.39E-01
244.04,6.40E-02
244.08,1.14E-02
244.13,1.23E-03
244.17,1.94E-04
244.21,2.90E-05
244.25,4.10E-06
262.58,8.60E-08
262.62,5.09E-07
262.66,2.87E-06
262.71,2.34E-05
262.75,1.19E-04
262.79,5.81E-04
262.83,2.70E-03
262.88,1.73E-02
262.92,7.24E-02
262.96,2.90E-01
263,1.11E+00
263.05,5.56E+00
263.09,1.92E+01
263.13,6.32E+01
263.17,1.99E+02
263.22,7.82E+02
263.26,2.22E+03
263.3,6.02E+03
263.34,1.56E+04
263.39,4.80E+04
263.43,1.12E+05
263.47,2.50E+05
263.51,5.34E+05
263.56,1.29E+06
263.6,2.48E+06
263.64,4.55E+06
263.68,7.98E+06
263.73,1.51E+07
263.77,2.39E+07
263.81,3.61E+07
263.85,5.21E+07
263.9,7.72E+07
263.94,1.01E+08
263.98,1.25E+08
264.02,1.48E+08
264.07,1.73E+08
264.11,1.85E+08
264.15,1.89E+08
264.19,1.85E+08
264.24,1.68E+08
264.28,1.48E+08
264.32,1.25E+08
264.36,1.01E+08
264.41,7.18E+07
264.45,5.21E+07
264.49,3.61E+07
264.53,2.39E+07
264.58,1.34E+07
264.62,7.98E+06
264.66,4.55E+06
264.7,2.48E+06
264.75,1.09E+06
264.79,5.34E+05
264.83,2.50E+05
264.87,1.12E+05
264.92,3.86E+04
264.96,1.56E+04
265,6.02E+03
265.04,2.22E+03
265.09,5.98E+02
265.13,1.99E+02
265.17,6.32E+01
265.21,1.92E+01
265.26,4.05E+00
265.3,1.11E+00
265.34,2.90E-01
265.38,7.24E-02
265.43,1.20E-02
265.47,2.70E-03
265.51,5.81E-04
265.55,1.19E-04
265.6,1.55E-05
265.64,2.87E-06
265.68,5.09E-07
265.72,8.60E-08
265.98,2.16E-06
266.02,1.28E-05
266.06,7.21E-05
266.11,5.90E-04
266.15,3.01E-03
266.19,1.47E-02
266.23,6.88E-02
266.28,4.44E-01
266.32,1.88E+00
266.36,7.58E+00
266.4,2.93E+01
266.45,1.49E+02
266.49,5.21E+02
266.53,1.74E+03
266.57,5.56E+03
266.62,2.23E+04
266.66,6.45E+04
266.7,1.78E+05
266.74,4.71E+05
266.79,1.49E+06
266.83,3.57E+06
266.87,8.15E+06
266.91,1.78E+07
266.96,4.45E+07
267,8.79E+07
267.04,1.66E+08
267.08,3.01E+08
267.13,5.92E+08
267.17,9.67E+08
267.21,1.51E+09
267.25,2.26E+09
267.3,3.51E+09
267.34,4.75E+09
267.38,6.14E+09
267.42,7.59E+09
267.47,9.29E+09
267.51,1.04E+10
267.55,1.11E+10
267.59,1.14E+10
267.64,1.10E+10
267.68,1.01E+10
267.72,8.97E+09
267.76,7.59E+09
267.81,5.78E+09
267.85,4.42E+09
267.89,3.23E+09
267.93,2.26E+09
267.98,1.36E+09
268.02,8.59E+08
268.06,5.20E+08
268.1,3.01E+08
268.15,1.42E+08
268.19,7.45E+07
268.23,3.73E+07
268.27,1.78E+07
268.32,6.66E+06
268.36,2.88E+06
268.4,1.19E+06
268.44,4.71E+05
268.49,1.39E+05
268.53,4.97E+04
268.57,1.70E+04
268.61,5.56E+03
268.66,1.29E+03
268.7,3.83E+02
268.74,1.08E+02
268.78,2.93E+01
268.83,5.37E+00
268.87,1.31E+00
268.91,3.07E-01
268.95,6.88E-02
269,9.94E-03
269.04,2.01E-03
269.08,3.89E-04
269.12,7.21E-05
269.17,8.22E-06
269.21,1.38E-06
273.16,9.03E-08
273.21,7.97E-07
273.25,4.34E-06
273.29,2.27E-05
273.33,1.13E-04
273.38,7.99E-04
273.42,3.63E-03
273.46,1.58E-02
273.5,6.62E-02
273.55,3.72E-01
273.59,1.41E+00
273.63,5.15E+00
273.67,1.80E+01
273.72,8.08E+01
273.76,2.56E+02
273.8,7.79E+02
273.84,2.27E+03
273.89,8.15E+03
273.93,2.16E+04
273.97,5.48E+04
274.01,1.34E+05
274.06,3.83E+05
274.1,8.47E+05
274.14,1.80E+06
274.18,3.65E+06
274.23,8.35E+06
274.27,1.54E+07
274.31,2.74E+07
274.35,4.65E+07
274.4,8.49E+07
274.44,1.31E+08
274.48,1.94E+08
274.52,2.75E+08
274.57,4.01E+08
274.61,5.17E+08
274.65,6.39E+08
274.69,7.57E+08
274.74,8.82E+08
274.78,9.50E+08
274.82,9.80E+08
274.86,9.70E+08
274.91,9.02E+08
274.95,8.11E+08
274.99,6.99E+08
275.03,5.78E+08
275.08,4.29E+08
275.12,3.22E+08
275.16,2.32E+08
275.2,1.60E+08
275.25,9.50E+07
275.29,5.96E+07
275.33,3.58E+07
275.37,2.07E+07
275.42,9.78E+06
275.46,5.13E+06
275.5,2.57E+06
275.54,1.24E+06
275.59,4.68E+05
275.63,2.05E+05
275.67,8.60E+04
275.71,3.46E+04
275.76,1.04E+04
275.8,3.82E+03
275.84,1.34E+03
275.88,4.49E+02
275.93,1.08E+02
275.97,3.30E+01
276.01,9.67E+00
276.05,2.71E+00
276.1,5.22E-01
276.14,1.33E-01
276.18,3.25E-02
276.23,5.27E-03
276.27,1.17E-03
276.31,2.49E-04
276.35,5.09E-05
276.4,6.59E-06
276.44,1.22E-06
276.48,2.17E-07
310.41,3.22E-07
310.45,1.47E-06
310.49,6.48E-06
310.54,3.96E-05
310.58,1.62E-04
310.62,6.44E-04
310.66,2.47E-03
310.71,1.27E-02
310.75,4.52E-02
310.79,1.56E-01
310.83,5.21E-01
310.88,2.25E+00
310.92,6.97E+00
310.96,2.09E+01
311,6.08E+01
311.05,2.20E+02
311.09,5.94E+02
311.13,1.55E+03
311.17,3.92E+03
311.22,1.19E+04
311.26,2.80E+04
311.3,6.36E+04
311.34,1.40E+05
311.39,3.57E+05
311.43,7.30E+05
311.47,1.44E+06
311.51,2.76E+06
311.56,5.92E+06
311.6,1.05E+07
311.64,1.81E+07
311.68,3.00E+07
311.73,5.41E+07
311.77,8.36E+07
311.81,1.25E+08
311.85,1.81E+08
311.9,2.74E+08
311.94,3.68E+08
311.98,4.79E+08
312.02,6.02E+08
312.07,7.66E+08
312.11,8.95E+08
312.15,1.01E+09
312.19,1.11E+09
312.24,1.19E+09
312.28,1.20E+09
312.32,1.19E+09
312.36,1.13E+09
312.41,1.01E+09
312.45,8.95E+08
312.49,7.66E+08
312.53,6.34E+08
312.58,4.79E+08
312.62,3.68E+08
312.66,2.74E+08
312.7,1.97E+08
312.75,1.25E+08
312.79,8.36E+07
312.83,5.41E+07
312.87,3.39E+07
312.92,1.81E+07
312.96,1.05E+07
313,5.92E+06
313.04,3.22E+06
313.09,1.44E+06
313.13,7.30E+05
313.17,3.57E+05
313.21,1.69E+05
313.26,6.36E+04
313.3,2.80E+04
313.34,1.19E+04
313.38,4.92E+03
313.43,1.55E+03
313.47,5.94E+02
313.51,2.20E+02
313.55,7.90E+01
313.6,2.09E+01
313.64,6.97E+00
313.68,2.25E+00
313.72,7.01E-01
313.77,1.56E-01
313.81,4.52E-02
313.85,1.27E-02
313.89,3.44E-03
313.94,6.44E-04
313.98,1.62E-04
314.02,3.96E-05
314.06,9.34E-06
314.11,1.47E-06
314.15,3.22E-07
330.01,7.82E-09
330.05,3.31E-08
330.09,1.36E-07
330.14,7.68E-07
330.18,2.96E-06
330.22,1.11E-05
330.26,4.04E-05
330.31,1.95E-04
330.35,6.64E-04
330.39,2.20E-03
330.43,7.08E-03
330.48,2.93E-02
330.52,8.82E-02
330.56,2.58E-01
330.6,7.34E-01
330.65,2.60E+00
330.69,6.93E+00
330.73,1.79E+01
330.77,4.51E+01
330.82,1.37E+02
330.86,3.23E+02
330.9,7.38E+02
330.94,1.64E+03
330.99,4.27E+03
331.03,8.88E+03
331.07,1.80E+04
331.11,3.53E+04
331.16,7.87E+04
331.2,1.45E+05
331.24,2.59E+05
331.28,4.49E+05
331.33,8.60E+05
331.37,1.40E+06
331.41,2.21E+06
331.45,3.39E+06
331.5,5.56E+06
331.54,7.98E+06
331.58,1.12E+07
331.62,1.51E+07
331.67,2.13E+07
331.71,2.70E+07
331.75,3.33E+07
331.79,4.00E+07
331.84,4.81E+07
331.88,5.40E+07
331.92,5.90E+07
331.96,6.25E+07
332.01,6.45E+07
332.05,6.40E+07
332.09,6.18E+07
332.13,5.79E+07
332.18,5.12E+07
332.22,4.49E+07
332.26,3.83E+07
332.3,3.17E+07
332.35,2.40E+07
332.39,1.87E+07
332.43,1.41E+07
332.47,1.03E+07
332.52,6.68E+06
332.56,4.58E+06
332.6,3.05E+06
332.64,1.98E+06
332.69,1.10E+06
332.73,6.67E+05
332.77,3.93E+05
332.81,2.25E+05
332.86,1.07E+05
332.9,5.74E+04
332.94,2.99E+04
332.98,1.51E+04
333.03,6.18E+03
333.07,2.93E+03
333.11,1.35E+03
333.15,6.02E+02
333.2,2.11E+02
333.24,8.83E+01
333.28,3.59E+01
333.32,1.42E+01
333.37,4.26E+00
333.41,1.58E+00
333.45,5.67E-01
333.49,1.98E-01
333.54,5.10E-02
333.58,1.67E-02
333.62,5.30E-03
333.66,1.64E-03
333.71,3.61E-04
333.75,1.04E-04
333.79,2.93E-05
333.83,8.00E-06
333.88,1.51E-06
333.92,3.87E-07
333.96,9.60E-08
334,2.32E-08
377.33,2.32E-08
377.37,8.08E-08
377.41,2.76E-07
377.46,1.24E-06
377.5,4.02E-06
377.54,1.28E-05
377.58,3.96E-05
377.63,1.58E-04
377.67,4.67E-04
377.71,1.35E-03
377.75,3.81E-03
377.8,1.35E-02
377.84,3.63E-02
377.88,9.53E-02
377.92,2.45E-01
377.97,7.72E-01
378.01,1.89E+00
378.05,4.51E+00
378.09,1.06E+01
378.14,2.96E+01
378.18,6.58E+01
378.22,1.43E+02
378.26,3.05E+02
378.31,7.59E+02
378.35,1.54E+03
378.39,3.04E+03
378.43,5.89E+03
378.48,1.30E+04
378.52,2.40E+04
378.56,4.32E+04
378.6,7.61E+04
378.65,1.50E+05
378.69,2.51E+05
378.73,4.11E+05
378.77,6.60E+05
378.82,1.15E+06
378.86,1.76E+06
378.9,2.62E+06
378.94,3.83E+06
378.99,5.94E+06
379.03,8.25E+06
379.07,1.12E+07
379.11,1.49E+07
379.16,2.05E+07
379.2,2.59E+07
379.24,3.20E+07
379.28,3.86E+07
379.33,4.74E+07
379.37,5.45E+07
379.41,6.12E+07
379.45,6.73E+07
379.5,7.34E+07
379.54,7.67E+07
379.58,7.84E+07
379.62,7.84E+07
379.67,7.60E+07
379.71,7.23E+07
379.75,6.73E+07
379.79,6.12E+07
379.84,5.27E+07
379.88,4.56E+07
379.92,3.86E+07
379.96,3.20E+07
380.01,2.45E+07
380.05,1.93E+07
380.09,1.49E+07
380.13,1.12E+07
380.18,7.61E+06
380.22,5.46E+06
380.26,3.83E+06
380.3,2.62E+06
380.35,1.59E+06
380.39,1.03E+06
380.43,6.60E+05
380.47,4.11E+05
380.52,2.21E+05
380.56,1.31E+05
380.6,7.61E+04
380.64,4.32E+04
380.69,2.06E+04
380.73,1.11E+04
380.77,5.89E+03
380.81,3.04E+03
380.86,1.29E+03
380.9,6.34E+02
380.94,3.05E+02
380.98,1.43E+02
381.03,5.40E+01
381.07,2.41E+01
381.11,1.06E+01
381.15,4.51E+00
381.2,1.51E+00
381.24,6.16E-01
381.28,2.45E-01
381.32,9.53E-02
381.37,2.84E-02
381.41,1.05E-02
381.45,3.81E-03
381.49,1.35E-03
381.54,3.57E-04
381.58,1.20E-04
381.62,3.96E-05
381.66,1.28E-05
381.71,3.00E-06
381.75,9.20E-07
381.79,2.76E-07
381.83,8.08E-08
381.88,1.69E-08
404.07,5.46E-08
404.11,1.76E-07
404.16,7.41E-07
404.2,2.29E-06
404.24,6.94E-06
404.28,2.06E-05
404.33,7.83E-05
404.37,2.23E-04
404.41,6.22E-04
404.45,1.70E-03
404.5,5.83E-03
404.54,1.53E-02
404.58,3.93E-02
404.62,9.90E-02
404.67,3.06E-01
404.71,7.39E-01
404.75,1.75E+00
404.79,4.06E+00
404.84,1.13E+01
404.88,2.52E+01
404.92,5.49E+01
404.96,1.17E+02
405.01,2.95E+02
405.05,6.05E+02
405.09,1.21E+03
405.13,2.39E+03
405.18,5.43E+03
405.22,1.02E+04
405.26,1.89E+04
405.3,3.43E+04
405.35,7.03E+04
405.39,1.22E+05
405.43,2.08E+05
405.47,3.48E+05
405.52,6.42E+05
405.56,1.03E+06
405.6,1.61E+06
405.64,2.48E+06
405.69,4.13E+06
405.73,6.09E+06
405.77,8.80E+06
405.81,1.25E+07
405.86,1.88E+07
405.9,2.55E+07
405.94,3.39E+07
405.98,4.42E+07
406.03,6.00E+07
406.07,7.49E+07
406.11,9.18E+07
406.15,1.10E+08
406.2,1.35E+08
406.24,1.56E+08
406.28,1.76E+08
406.32,1.94E+08
406.37,2.15E+08
406.41,2.28E+08
406.45,2.37E+08
406.49,2.41E+08
406.54,2.41E+08
406.58,2.35E+08
406.62,2.25E+08
406.66,2.11E+08
406.71,1.90E+08
406.75,1.71E+08
406.79,1.51E+08
406.83,1.30E+08
406.88,1.06E+08
406.92,8.75E+07
406.96,7.10E+07
407,5.66E+07
407.05,4.14E+07
407.09,3.16E+07
407.13,2.36E+07
407.17,1.73E+07
407.22,1.15E+07
407.26,8.04E+06
407.3,5.54E+06
407.34,3.74E+06
407.39,2.23E+06
407.43,1.44E+06
407.47,9.15E+05
407.51,5.69E+05
407.56,3.06E+05
407.6,1.82E+05
407.64,1.07E+05
407.68,6.11E+04
407.73,2.96E+04
407.77,1.63E+04
407.81,8.75E+03
407.85,4.62E+03
407.9,2.02E+03
407.94,1.02E+03
407.98,5.06E+02
408.02,2.46E+02
408.07,9.72E+01
408.11,4.53E+01
408.15,2.07E+01
408.19,9.25E+00
408.24,3.30E+00
408.28,1.41E+00
408.32,5.94E-01
408.36,2.45E-01
408.41,7.87E-02
408.45,3.11E-02
408.49,1.20E-02
408.53,4.57E-03
408.58,1.33E-03
408.62,4.82E-04
408.66,1.72E-04
408.7,6.01E-05
408.75,1.57E-05
408.79,5.27E-06
408.83,1.73E-06
408.87,5.57E-07
408.92,1.32E-07
408.96,4.06E-08
476.39,5.63E-08
476.43,1.52E-07
476.47,4.07E-07
476.52,1.36E-06
476.56,3.52E-06
476.6,8.99E-06
476.64,2.26E-05
476.69,7.03E-05
476.73,1.72E-04
476.77,4.13E-04
476.81,9.78E-04
476.86,2.82E-03
476.9,6.49E-03
476.94,1.47E-02
476.98,3.29E-02
477.03,8.82E-02
477.07,1.91E-01
477.11,4.08E-01
477.15,8.60E-01
477.2,2.14E+00
477.24,4.37E+00
477.28,8.81E+00
477.32,1.75E+01
477.37,4.04E+01
477.41,7.78E+01
477.45,1.48E+02
477.49,2.77E+02
477.54,5.94E+02
477.58,1.08E+03
477.62,1.93E+03
477.66,3.40E+03
477.71,6.78E+03
477.75,1.16E+04
477.79,1.95E+04
477.83,3.25E+04
477.88,6.01E+04
477.92,9.69E+04
477.96,1.54E+05
478,2.41E+05
478.05,4.15E+05
478.09,6.30E+05
478.13,9.44E+05
478.17,1.40E+06
478.22,2.23E+06
478.26,3.19E+06
478.3,4.50E+06
478.35,6.79E+06
478.39,9.29E+06
478.43,1.25E+07
478.47,1.67E+07
478.52,2.34E+07
478.56,3.01E+07
478.6,3.83E+07
478.64,4.81E+07
478.69,6.25E+07
478.73,7.60E+07
478.77,9.11E+07
478.81,1.08E+08
478.86,1.30E+08
478.9,1.49E+08
478.94,1.68E+08
478.98,1.88E+08
479.03,2.11E+08
479.07,2.27E+08
479.11,2.42E+08
479.15,2.54E+08
479.2,2.65E+08
479.24,2.69E+08
479.28,2.70E+08
479.32,2.68E+08
479.37,2.59E+08
479.41,2.48E+08
479.45,2.35E+08
479.49,2.19E+08
479.54,1.97E+08
479.58,1.78E+08
479.62,1.59E+08
479.66,1.40E+08
479.71,1.16E+08
479.75,9.92E+07
479.79,8.34E+07
479.83,6.91E+07
479.88,5.36E+07
479.92,4.30E+07
479.96,3.41E+07
480,2.67E+07
480.05,1.93E+07
480.09,1.47E+07
480.13,1.11E+07
480.17,8.38E+06
480.22,5.97E+06
480.26,4.69E+06
480.3,3.88E+06
480.34,3.48E+06
480.39,3.45E+06
480.43,3.77E+06
480.47,4.35E+06
480.51,5.19E+06
480.56,6.58E+06
480.6,7.96E+06
480.64,9.55E+06
480.68,1.14E+07
480.73,1.38E+07
480.77,1.60E+07
480.81,1.82E+07
480.85,2.05E+07
480.9,2.33E+07
480.94,2.54E+07
480.98,2.73E+07
481.02,2.89E+07
481.07,3.05E+07
481.11,3.14E+07
481.15,3.18E+07
481.19,3.18E+07
481.24,3.12E+07
481.28,3.03E+07
481.32,2.89E+07
481.36,2.73E+07
481.41,2.49E+07
481.45,2.27E+07
481.49,2.05E+07
481.53,1.82E+07
481.58,1.54E+07
481.62,1.33E+07
481.66,1.13E+07
481.7,9.48E+06
481.75,7.46E+06
481.79,6.06E+06
481.83,4.86E+06
481.87,3.84E+06
481.92,2.81E+06
481.96,2.15E+06
482,1.63E+06
482.04,1.21E+06
482.09,8.24E+05
482.13,5.95E+05
482.17,4.24E+05
482.21,2.98E+05
482.26,1.88E+05
482.3,1.28E+05
482.34,8.63E+04
482.38,5.72E+04
482.43,3.35E+04
482.47,2.16E+04
482.51,1.37E+04
482.55,8.54E+03
482.6,4.65E+03
482.64,2.82E+03
482.68,1.69E+03
482.72,9.93E+02
482.77,5.03E+02
482.81,2.87E+02
482.85,1.62E+02
482.89,9.00E+01
482.94,4.23E+01
482.98,2.28E+01
483.02,1.21E+01
483.06,6.35E+00
483.11,2.78E+00
483.15,1.41E+00
483.19,7.07E-01
483.23,3.49E-01
483.28,1.42E-01
483.32,6.80E-02
483.36,3.21E-02
483.4,1.50E-02
483.45,5.65E-03
483.49,2.55E-03
483.53,1.14E-03
483.57,5.00E-04
483.62,1.75E-04
483.66,7.47E-05
483.7,3.14E-05
483.74,1.30E-05
483.79,4.24E-06
483.83,1.70E-06
483.87,6.74E-07
483.91,2.63E-07
483.96,7.98E-08
484,3.02E-08
484.04,1.13E-08
484.08,4.16E-09
580.21,6.74E-09
580.26,1.89E-08
580.3,4.25E-08
580.34,9.49E-08
580.38,2.10E-07
580.43,5.58E-07
580.47,1.21E-06
580.51,2.59E-06
580.55,5.51E-06
580.6,1.39E-05
580.64,2.90E-05
580.68,5.98E-05
580.72,1.22E-04
580.77,2.94E-04
580.81,5.87E-04
580.85,1.16E-03
580.89,2.28E-03
580.94,5.23E-03
580.98,1.00E-02
581.02,1.91E-02
581.06,3.60E-02
581.11,7.85E-02
581.15,1.45E-01
581.19,2.65E-01
581.23,4.80E-01
581.28,9.95E-01
581.32,1.76E+00
581.36,3.10E+00
581.4,5.39E+00
581.45,1.06E+01
581.49,1.81E+01
581.53,3.06E+01
581.57,5.12E+01
581.62,9.60E+01
581.66,1.57E+02
581.7,2.55E+02
581.74,4.10E+02
581.79,7.32E+02
581.83,1.15E+03
581.87,1.79E+03
581.91,2.77E+03
581.96,4.70E+03
582,7.11E+03
582.04,1.07E+04
582.08,1.58E+04
582.13,2.55E+04
582.17,3.71E+04
582.21,5.34E+04
582.25,7.61E+04
582.3,1.17E+05
582.34,1.63E+05
582.38,2.26E+05
582.42,3.09E+05
582.47,4.52E+05
582.51,6.06E+05
582.55,8.05E+05
582.59,1.06E+06
582.64,1.47E+06
582.68,1.90E+06
582.72,2.43E+06
582.76,3.07E+06
582.81,4.06E+06
582.85,5.03E+06
582.89,6.16E+06
582.93,7.49E+06
582.98,9.43E+06
583.02,1.12E+07
583.06,1.32E+07
583.1,1.54E+07
583.15,1.85E+07
583.19,2.11E+07
583.23,2.39E+07
583.27,2.69E+07
583.32,3.06E+07
583.36,3.36E+07
583.4,3.66E+07
583.44,3.94E+07
583.49,4.28E+07
583.53,4.51E+07
583.57,4.72E+07
583.61,4.89E+07
583.66,5.04E+07
583.7,5.11E+07
583.74,5.14E+07
583.78,5.11E+07
583.83,5.02E+07
583.87,4.89E+07
583.91,4.72E+07
583.95,4.51E+07
584,4.21E+07
584.04,3.94E+07
584.08,3.66E+07
584.12,3.36E+07
584.17,2.99E+07
584.21,2.69E+07
584.25,2.39E+07
584.29,2.11E+07
584.34,1.79E+07
584.38,1.54E+07
584.42,1.32E+07
584.46,1.12E+07
584.51,9.02E+06
584.55,7.49E+06
584.59,6.16E+06
584.63,5.03E+06
584.68,3.84E+06
584.72,3.07E+06
584.76,2.43E+06
584.8,1.90E+06
584.85,1.38E+06
584.89,1.06E+06
584.93,8.05E+05
584.97,6.06E+05
585.02,4.19E+05
585.06,3.09E+05
585.1,2.26E+05
585.14,1.63E+05
585.19,1.07E+05
585.23,7.61E+04
585.27,5.34E+04
585.31,3.71E+04
585.36,2.32E+04
585.4,1.58E+04
585.44,1.07E+04
585.48,7.11E+03
585.53,4.24E+03
585.57,2.77E+03
585.61,1.79E+03
585.65,1.15E+03
585.7,6.52E+02
585.74,4.10E+02
585.78,2.55E+02
585.82,1.57E+02
585.87,8.48E+01
585.91,5.12E+01
585.95,3.06E+01
586,1.59E+01
586.04,9.30E+00
586.08,5.39E+00
586.12,3.10E+00
586.17,1.53E+00
586.21,8.61E-01
586.25,4.80E-01
586.29,2.65E-01
586.34,1.24E-01
586.38,6.73E-02
586.42,3.60E-02
586.46,1.91E-02
586.51,8.54E-03
586.55,4.44E-03
586.59,2.28E-03
586.63,1.16E-03
586.68,4.95E-04
586.72,2.47E-04
586.76,1.22E-04
586.8,5.98E-05
586.85,2.42E-05
586.89,1.16E-05
586.93,5.51E-06
586.97,2.59E-06
587.02,9.97E-07
587.06,4.60E-07
587.1,2.10E-07
587.14,9.49E-08
