Wavelength,Spectra,,,
174.4,2.48E-69,,,
174.44,3.80E-68,,,
174.48,5.24E-67,,,
174.53,1.20E-65,,,
174.57,1.31E-64,,,
174.61,1.29E-63,,,
174.65,1.15E-62,,,
174.7,1.52E-61,,,
174.74,1.07E-60,,,
174.78,6.74E-60,,,
174.82,3.84E-59,,,
174.87,2.92E-58,,,
174.91,1.32E-57,,,
174.95,5.37E-57,,,
174.99,1.97E-56,,,
175.04,8.63E-56,,,
175.08,2.50E-55,,,
175.12,6.55E-55,,,
175.17,1.88E-54,,,
175.21,3.89E-54,,,
175.25,7.27E-54,,,
175.29,1.22E-53,,,
175.34,2.02E-53,,,
175.38,2.69E-53,,,
175.42,3.23E-53,,,
175.46,3.49E-53,,,
175.51,3.32E-53,,,
175.55,2.84E-53,,,
175.59,2.19E-53,,,
175.63,1.52E-53,,,
175.68,8.35E-54,,,
175.72,4.60E-54,,,
175.76,2.28E-54,,,
175.8,1.02E-54,,,
175.85,3.22E-55,,,
175.89,1.14E-55,,,
175.93,3.63E-56,,,
175.97,1.04E-56,,,
176.02,1.89E-57,,,
176.06,4.30E-58,,,
176.1,8.82E-59,,,
176.14,1.63E-59,,,
176.19,1.71E-60,,,
176.23,2.49E-61,,,
176.27,3.29E-62,,,
176.31,3.90E-63,,,
176.36,2.35E-64,,,
176.4,2.21E-65,,,
176.44,1.87E-66,,,
176.48,1.43E-67,,,
176.53,3.11E-08,,,
176.57,7.01E-07,,,
176.61,9.48E-06,,,
176.65,1.16E-04,,,
176.7,2.30E-03,,,
176.74,2.24E-02,,,
176.78,1.97E-01,,,
176.82,1.57E+00,,,
176.87,1.83E+01,,,
176.91,1.16E+02,,,
176.95,6.65E+02,,,
176.99,3.45E+03,,,
177.04,2.35E+04,,,
177.08,9.71E+04,,,
177.12,3.63E+05,,,
177.16,1.23E+06,,,
177.21,4.89E+06,,,
177.25,1.32E+07,,,
177.29,3.21E+07,,,
177.33,7.07E+07,,,
177.38,1.65E+08,,,
177.42,2.89E+08,,,
177.46,4.59E+08,,,
177.5,6.59E+08,,,
177.55,8.98E+08,,,
177.59,1.03E+09,,,
177.63,1.06E+09,,,
177.67,9.93E+08,,,
177.72,7.93E+08,,,
177.76,5.91E+08,,,
177.8,3.98E+08,,,
177.84,2.42E+08,,,
177.89,1.13E+08,,,
177.93,5.49E+07,,,
177.97,2.41E+07,,,
178.01,9.55E+06,,,
178.06,2.61E+06,,,
178.1,8.24E+05,,,
178.14,2.35E+05,,,
178.18,6.08E+04,,,
178.23,9.70E+03,,,
178.27,2.00E+03,,,
178.31,3.71E+02,,,
178.35,6.24E+01,,,
178.4,5.82E+00,,,
178.44,7.79E-01,,,
178.48,9.43E-02,,,
178.52,1.03E-02,,,
178.57,5.63E-04,,,
178.61,4.90E-05,,,
178.65,3.86E-06,,,
178.69,2.75E-07,,,
190.51,3.49E-69,,,
190.56,7.27E-68,,,
190.6,7.47E-67,,,
190.64,7.04E-66,,,
190.68,6.09E-65,,,
190.73,7.97E-64,,,
190.77,5.66E-63,,,
190.81,3.69E-62,,,
190.85,2.20E-61,,,
190.9,1.81E-60,,,
190.94,8.89E-60,,,
190.98,4.00E-59,,,
191.02,1.65E-58,,,
191.07,8.55E-58,,,
191.11,2.90E-57,,,
191.15,8.99E-57,,,
191.19,2.56E-56,,,
191.24,8.36E-56,,,
191.28,1.95E-55,,,
191.32,4.19E-55,,,
191.36,8.23E-55,,,
191.41,1.69E-54,,,
191.45,2.73E-54,,,
191.49,4.05E-54,,,
191.53,5.49E-54,,,
191.58,7.11E-54,,,
191.62,7.92E-54,,,
191.66,8.10E-54,,,
191.7,7.59E-54,,,
191.75,6.19E-54,,,
191.79,5.17E-09,,,
191.83,6.25E-08,,,
191.87,6.93E-07,,,
191.92,1.24E-05,,,
191.96,1.14E-04,,,
192,9.54E-04,,,
192.04,7.35E-03,,,
192.09,8.35E-02,,,
192.13,5.30E-01,,,
192.17,3.08E+00,,,
192.21,1.65E+01,,,
192.26,1.19E+02,,,
192.3,5.22E+02,,,
192.34,2.11E+03,,,
192.38,7.83E+03,,,
192.43,3.57E+04,,,
192.47,1.09E+05,,,
192.51,3.06E+05,,,
192.55,7.87E+05,,,
192.6,2.27E+06,,,
192.64,4.82E+06,,,
192.68,9.39E+06,,,
192.72,1.68E+07,,,
192.77,3.07E+07,,,
192.81,4.52E+07,,,
192.85,6.10E+07,,,
192.89,7.57E+07,,,
192.94,8.77E+07,,,
192.98,8.96E+07,,,
193.02,8.40E+07,,,
193.06,7.23E+07,,,
193.11,5.31E+07,,,
193.15,3.76E+07,,,
193.19,2.45E+07,,,
193.23,1.46E+07,,,
193.28,6.80E+06,,,
193.32,3.35E+06,,,
193.36,1.51E+06,,,
193.4,6.27E+05,,,
193.45,1.85E+05,,,
193.49,6.31E+04,,,
193.53,1.98E+04,,,
193.57,5.69E+03,,,
193.62,1.11E+03,,,
193.66,4.99E+02,,,
193.7,1.11E+03,,,
193.74,4.15E+03,,,
193.79,2.03E+04,,,
193.83,6.59E+04,,,
193.87,1.97E+05,,,
193.91,5.39E+05,,,
193.96,1.69E+06,,,
194,3.82E+06,,,
194.04,7.94E+06,,,
194.08,1.52E+07,,,
194.13,3.03E+07,,,
194.17,4.79E+07,,,
194.21,6.96E+07,,,
194.25,9.29E+07,,,
194.3,1.18E+08,,,
194.34,1.31E+08,,,
194.38,1.32E+08,,,
194.42,1.23E+08,,,
194.47,1.00E+08,,,
194.51,7.72E+07,,,
194.55,5.46E+07,,,
194.59,3.55E+07,,,
194.64,1.84E+07,,,
194.68,9.90E+06,,,
194.72,4.89E+06,,,
194.76,2.22E+06,,,
194.81,7.34E+05,,,
194.85,2.75E+05,,,
194.89,9.49E+04,,,
194.93,3.01E+04,,,
194.98,6.35E+03,,,
195.02,1.66E+03,,,
195.06,4.00E+02,,,
195.1,8.84E+01,,,
195.15,1.19E+01,,,
195.19,2.18E+00,,,
195.23,3.65E-01,,,
195.27,5.64E-02,,,
195.32,4.84E-03,,,
195.36,6.22E-04,,,
195.4,1.20E-04,,,
195.45,6.96E-04,,,
195.49,5.40E-03,,,
195.53,3.88E-02,,,
195.57,2.57E-01,,,
195.62,2.43E+00,,,
195.66,1.33E+01,,,
195.7,6.74E+01,,,
195.74,3.14E+02,,,
195.79,1.91E+03,,,
195.83,7.39E+03,,,
195.87,2.63E+04,,,
195.91,8.62E+04,,,
195.96,3.38E+05,,,
196,9.20E+05,,,
196.04,2.31E+06,,,
196.08,5.32E+06,,,
196.13,1.35E+07,,,
196.17,2.58E+07,,,
196.21,4.54E+07,,,
196.25,7.37E+07,,,
196.3,1.20E+08,,,
196.34,1.62E+08,,,
196.38,2.01E+08,,,
196.42,2.30E+08,,,
196.47,2.41E+08,,,
196.51,2.29E+08,,,
196.55,2.00E+08,,,
196.59,1.61E+08,,,
196.64,1.09E+08,,,
196.68,7.26E+07,,,
196.72,4.46E+07,,,
196.76,2.52E+07,,,
196.81,1.10E+07,,,
196.85,5.17E+06,,,
196.89,2.23E+06,,,
196.93,8.89E+05,,,
196.98,2.50E+05,,,
197.02,8.26E+04,,,
197.06,2.51E+04,,,
197.1,7.04E+03,,,
197.15,1.28E+03,,,
197.19,2.96E+02,,,
197.23,6.34E+01,,,
197.27,1.25E+01,,,
197.32,1.46E+00,,,
197.36,2.39E-01,,,
197.4,3.59E-02,,,
197.44,4.98E-03,,,
197.49,3.75E-04,,,
197.53,4.31E-05,,,
197.57,4.56E-06,,,
197.61,4.45E-07,,,
197.66,2.05E-08,,,
198.59,4.41E-08,,,
198.63,4.83E-07,,,
198.68,8.58E-06,,,
198.72,7.85E-05,,,
198.76,6.62E-04,,,
198.8,5.16E-03,,,
198.85,5.99E-02,,,
198.89,3.90E-01,,,
198.93,2.34E+00,,,
198.97,1.30E+01,,,
199.02,9.85E+01,,,
199.06,4.56E+02,,,
199.1,1.95E+03,,,
199.14,7.68E+03,,,
199.19,3.82E+04,,,
199.23,1.26E+05,,,
199.27,3.82E+05,,,
199.31,1.07E+06,,,
199.36,3.48E+06,,,
199.4,8.15E+06,,,
199.44,1.76E+07,,,
199.48,3.52E+07,,,
199.53,7.47E+07,,,
199.57,1.25E+08,,,
199.61,1.92E+08,,,
199.65,2.73E+08,,,
199.7,3.78E+08,,,
199.74,4.48E+08,,,
199.78,4.91E+08,,,
199.82,4.97E+08,,,
199.87,4.50E+08,,,
199.91,3.80E+08,,,
199.95,2.96E+08,,,
199.99,2.13E+08,,,
200.04,1.26E+08,,,
200.08,7.58E+07,,,
200.12,4.21E+07,,,
200.16,2.15E+07,,,
200.21,8.33E+06,,,
200.25,3.56E+06,,,
200.29,1.41E+06,,,
200.33,5.12E+05,,,
200.38,1.30E+05,,,
200.42,3.94E+04,,,
200.46,1.11E+04,,,
200.5,2.87E+03,,,
200.55,4.75E+02,,,
200.59,1.03E+02,,,
200.63,2.05E+01,,,
200.67,3.79E+00,,,
200.72,4.09E-01,,,
200.76,6.30E-02,,,
200.8,8.97E-03,,,
200.84,1.18E-03,,,
200.89,8.31E-05,,,
200.93,9.11E-06,,,
200.97,9.22E-07,,,
201.01,8.61E-08,,,
204.33,5.34E-09,,,
204.37,3.80E-07,,,
204.42,6.49E-06,,,
204.46,5.77E-05,,,
204.5,4.75E-04,,,
204.54,3.63E-03,,,
204.59,4.14E-02,,,
204.63,2.67E-01,,,
204.67,1.60E+00,,,
204.71,8.83E+00,,,
204.76,6.75E+01,,,
204.8,3.15E+02,,,
204.84,1.37E+03,,,
204.88,5.49E+03,,,
204.93,2.81E+04,,,
204.97,9.51E+04,,,
205.01,2.99E+05,,,
205.05,8.70E+05,,,
205.1,2.98E+06,,,
205.14,7.31E+06,,,
205.18,1.67E+07,,,
205.22,3.52E+07,,,
205.27,8.06E+07,,,
205.31,1.44E+08,,,
205.35,2.37E+08,,,
205.39,3.63E+08,,,
205.44,5.57E+08,,,
205.48,7.19E+08,,,
205.52,8.62E+08,,,
205.56,9.57E+08,,,
205.61,9.81E+08,,,
205.65,9.19E+08,,,
205.69,7.99E+08,,,
205.73,6.43E+08,,,
205.78,4.41E+08,,,
205.82,3.00E+08,,,
205.86,1.89E+08,,,
205.9,1.10E+08,,,
205.95,5.06E+07,,,
205.99,2.50E+07,,,
206.03,1.14E+07,,,
206.07,4.83E+06,,,
206.12,1.48E+06,,,
206.16,5.30E+05,,,
206.2,1.76E+05,,,
206.24,5.39E+04,,,
206.29,1.11E+04,,,
206.33,2.87E+03,,,
206.37,6.90E+02,,,
206.41,1.54E+02,,,
206.46,2.11E+01,,,
206.5,3.97E+00,,,
206.54,6.91E-01,,,
206.58,1.12E-01,,,
206.63,1.03E-02,,,
206.67,1.40E-03,,,
206.71,1.77E-04,,,
206.75,2.07E-05,,,
206.8,1.28E-06,,,
206.84,1.26E-07,,,
206.88,4.93E-59,,,
206.92,2.17E-58,,,
206.97,1.25E-57,,,
207.01,4.66E-57,,,
207.05,1.62E-56,,,
207.09,5.20E-56,,,
207.14,2.02E-55,,,
207.18,5.49E-55,,,
207.22,1.39E-54,,,
207.26,3.26E-54,,,
207.31,8.52E-54,,,
207.35,1.69E-53,,,
207.39,3.12E-53,,,
207.43,5.35E-53,,,
207.48,9.44E-53,,,
207.52,1.37E-52,,,
207.56,1.84E-52,,,
207.6,2.31E-52,,,
207.65,2.77E-52,,,
207.69,2.96E-52,,,
207.73,2.96E-52,,,
207.77,2.79E-52,,,
207.82,2.42E-52,,,
207.86,2.09E-52,,,
207.9,1.80E-52,,,
207.94,1.56E-52,,,
207.99,1.34E-52,,,
208.03,1.19E-52,,,
208.07,1.05E-52,,,
208.11,8.88E-53,,,
208.16,6.72E-53,,,
208.2,5.02E-53,,,
208.24,3.51E-53,,,
208.28,2.28E-53,,,
208.33,1.21E-53,,,
208.37,6.66E-54,,,
208.41,3.42E-54,,,
208.45,1.63E-54,,,
208.5,5.84E-55,,,
208.54,2.36E-55,,,
208.58,8.86E-56,,,
208.62,3.09E-56,,,
208.67,7.46E-57,,,
208.71,2.20E-57,,,
208.75,6.04E-58,,,
208.8,1.08E-58,,,
208.84,2.51E-59,,,
208.88,5.40E-60,,,
208.92,1.08E-60,,,
208.97,1.31E-61,,,
209.01,2.21E-62,,,
209.05,3.49E-63,,,
209.09,5.10E-64,,,
209.14,4.15E-65,,,
209.18,5.14E-66,,,
209.22,5.92E-67,,,
209.26,6.32E-68,,,
210.96,1.67E-68,,,
211.01,2.59E-67,,,
211.05,2.14E-66,,,
211.09,1.65E-65,,,
211.13,1.19E-64,,,
211.18,1.26E-63,,,
211.22,7.73E-63,,,
211.26,4.41E-62,,,
211.3,1.75E-08,,,
211.35,2.74E-07,,,
211.39,2.30E-06,,,
211.43,1.79E-05,,,
211.47,1.30E-04,,,
211.52,1.40E-03,,,
211.56,8.70E-03,,,
211.6,5.02E-02,,,
211.64,2.70E-01,,,
211.69,2.00E+00,,,
211.73,9.17E+00,,,
211.77,3.91E+01,,,
211.81,1.56E+02,,,
211.86,7.92E+02,,,
211.9,2.69E+03,,,
211.94,8.50E+03,,,
211.98,2.50E+04,,,
212.03,8.74E+04,,,
212.07,2.19E+05,,,
212.11,5.13E+05,,,
212.15,1.12E+06,,,
212.2,2.68E+06,,,
212.24,4.98E+06,,,
212.28,8.62E+06,,,
212.32,1.39E+07,,,
212.37,2.29E+07,,,
212.41,3.15E+07,,,
212.45,4.03E+07,,,
212.49,4.81E+07,,,
212.54,5.44E+07,,,
212.58,5.53E+07,,,
212.62,5.25E+07,,,
212.66,4.64E+07,,,
212.71,3.59E+07,,,
212.75,2.71E+07,,,
212.79,1.90E+07,,,
212.83,1.24E+07,,,
212.88,6.61E+06,,,
212.92,3.69E+06,,,
212.96,1.92E+06,,,
213,9.26E+05,,,
213.05,3.39E+05,,,
213.09,1.40E+05,,,
213.13,5.37E+04,,,
213.17,1.92E+04,,,
213.22,4.82E+03,,,
213.26,1.47E+03,,,
213.3,4.19E+02,,,
213.34,1.11E+02,,,
213.39,1.91E+01,,,
213.43,4.32E+00,,,
213.47,9.09E-01,,,
213.51,1.78E-01,,,
213.56,2.11E-02,,,
213.6,3.53E-03,,,
213.64,5.49E-04,,,
213.68,7.98E-05,,,
213.73,6.47E-06,,,
213.77,8.01E-07,,,
213.81,9.24E-08,,,
213.85,9.92E-09,,,
213.9,5.00E-55,,,
213.94,3.01E-55,,,
213.98,1.69E-55,,,
214.02,8.82E-56,,,
214.07,3.55E-56,,,
214.11,1.59E-56,,,
214.15,6.61E-57,,,
214.19,2.56E-57,,,
214.24,7.11E-58,,,
214.28,2.36E-58,,,
214.32,7.29E-59,,,
214.36,2.10E-59,,,
214.41,4.01E-60,,,
214.45,9.87E-61,,,
214.49,2.26E-61,,,
214.53,4.84E-62,,,
214.58,6.38E-63,,,
214.62,1.17E-63,,,
214.66,1.98E-64,,,
214.7,3.15E-65,,,
214.75,2.86E-66,,,
214.79,3.87E-67,,,
214.83,4.90E-68,,,
214.87,5.77E-69,,,
214.92,3.61E-70,,,
216.19,3.26E-07,,,
216.24,4.97E-06,,,
216.28,4.07E-05,,,
216.32,3.12E-04,,,
216.36,2.24E-03,,,
216.41,2.38E-02,,,
216.45,1.47E-01,,,
216.49,8.43E-01,,,
216.53,4.53E+00,,,
216.58,3.37E+01,,,
216.62,1.56E+02,,,
216.66,6.72E+02,,,
216.7,2.71E+03,,,
216.75,1.41E+04,,,
216.79,4.88E+04,,,
216.83,1.58E+05,,,
216.87,4.78E+05,,,
216.92,1.74E+06,,,
216.96,4.51E+06,,,
217,1.10E+07,,,
217.04,2.49E+07,,,
217.09,6.31E+07,,,
217.13,1.23E+08,,,
217.17,2.24E+08,,,
217.21,3.82E+08,,,
217.26,6.77E+08,,,
217.3,9.91E+08,,,
217.34,1.36E+09,,,
217.38,1.73E+09,,,
217.43,2.14E+09,,,
217.47,2.35E+09,,,
217.51,2.42E+09,,,
217.55,2.32E+09,,,
217.6,2.00E+09,,,
217.64,1.65E+09,,,
217.68,1.27E+09,,,
217.72,9.15E+08,,,
217.77,5.52E+08,,,
217.81,3.41E+08,,,
217.85,1.97E+08,,,
217.89,1.07E+08,,,
217.94,4.49E+07,,,
217.98,2.08E+07,,,
218.02,9.04E+06,,,
218.06,3.66E+06,,,
218.11,1.08E+06,,,
218.15,3.75E+05,,,
218.19,1.22E+05,,,
218.23,3.72E+04,,,
218.28,7.63E+03,,,
218.32,2.00E+03,,,
218.36,4.87E+02,,,
218.4,1.11E+02,,,
218.45,1.60E+01,,,
218.49,3.13E+00,,,
218.53,5.73E-01,,,
218.57,9.82E-02,,,
218.62,9.84E-03,,,
218.66,1.45E-03,,,
218.7,1.99E-04,,,
218.74,2.56E-05,,,
218.79,1.79E-06,,,
218.83,1.82E-07,,,
218.87,2.15E-58,,,
218.91,6.44E-58,,,
218.96,2.31E-57,,,
219,5.94E-57,,,
219.04,1.43E-56,,,
219.08,3.23E-56,,,
219.13,8.13E-56,,,
219.17,1.58E-55,,,
219.21,2.87E-55,,,
219.25,4.88E-55,,,
219.3,8.64E-55,,,
219.34,1.27E-54,,,
219.38,1.73E-54,,,
219.42,2.22E-54,,,
219.47,2.77E-54,,,
219.51,3.06E-54,,,
219.55,3.16E-54,,,
219.59,3.06E-54,,,
219.64,2.67E-54,,,
219.68,2.22E-54,,,
219.72,1.73E-54,,,
219.76,1.27E-54,,,
219.81,7.77E-55,,,
219.85,4.88E-55,,,
219.89,2.87E-55,,,
219.93,1.58E-55,,,
219.98,6.82E-56,,,
220.02,3.23E-56,,,
220.06,1.43E-56,,,
220.1,5.94E-57,,,
220.15,1.80E-57,,,
220.19,6.44E-58,,,
220.23,2.15E-58,,,
220.27,6.74E-59,,,
220.32,1.44E-59,,,
220.36,3.87E-60,,,
220.4,9.77E-61,,,
220.44,2.31E-61,,,
220.49,3.45E-62,,,
220.53,7.02E-63,,,
220.57,1.34E-63,,,
220.61,2.38E-64,,,
220.66,2.50E-65,,,
220.7,3.84E-66,,,
220.74,5.50E-67,,,
220.78,7.39E-68,,,
220.83,5.47E-69,,,
220.87,6.32E-70,,,
228.31,2.09E-11,,,
228.35,1.64E-10,,,
228.39,1.22E-09,,,
228.44,1.36E-08,,,
228.48,8.79E-08,,,
228.52,5.34E-07,,,
228.56,3.06E-06,,,
228.61,2.48E-05,,,
228.65,1.24E-04,,,
228.69,5.81E-04,,,
228.73,2.57E-03,,,
228.78,1.51E-02,,,
228.82,5.83E-02,,,
228.86,2.12E-01,,,
228.9,7.22E-01,,,
228.95,3.08E+00,,,
228.99,9.18E+00,,,
229.03,2.57E+01,,,
229.08,8.57E+01,,,
229.12,2.10E+02,,,
229.16,4.83E+02,,,
229.2,1.05E+03,,,
229.25,2.53E+03,,,
229.29,4.78E+03,,,
229.33,8.50E+03,,,
229.37,1.42E+04,,,
229.42,2.49E+04,,,
229.46,3.64E+04,,,
229.5,5.00E+04,,,
229.54,6.47E+04,,,
229.59,8.20E+04,,,
229.63,9.26E+04,,,
229.67,9.84E+04,,,
229.71,9.84E+04,,,
229.76,9.03E+04,,,
229.8,7.88E+04,,,
229.84,6.47E+04,,,
229.88,5.00E+04,,,
229.93,3.33E+04,,,
229.97,2.24E+04,,,
230.01,1.42E+04,,,
230.05,8.50E+03,,,
230.1,4.10E+03,,,
230.14,2.13E+03,,,
230.18,1.05E+03,,,
230.22,4.83E+02,,,
230.27,1.69E+02,,,
230.31,6.79E+01,,,
230.35,2.57E+01,,,
230.39,9.18E+00,,,
230.44,2.32E+00,,,
230.48,7.22E-01,,,
230.52,2.12E-01,,,
230.56,5.83E-02,,,
230.61,1.07E-02,,,
230.65,2.57E-03,,,
230.69,5.81E-04,,,
230.73,1.24E-04,,,
230.78,1.64E-05,,,
230.82,3.06E-06,,,
230.86,5.34E-07,,,
230.9,8.79E-08,,,
230.95,8.46E-09,,,
230.99,1.22E-09,,,
231.03,1.64E-10,,,
231.07,2.09E-11,,,
233.45,1.47E-05,,,
233.5,1.80E-04,,,
233.54,1.26E-03,,,
233.58,8.30E-03,,,
233.62,5.16E-02,,,
233.67,4.67E-01,,,
233.71,2.55E+00,,,
233.75,1.31E+01,,,
233.79,6.38E+01,,,
233.84,4.24E+02,,,
233.88,1.81E+03,,,
233.92,7.28E+03,,,
233.96,2.76E+04,,,
234.01,1.35E+05,,,
234.05,4.50E+05,,,
234.09,1.42E+06,,,
234.13,4.20E+06,,,
234.18,1.51E+07,,,
234.22,3.93E+07,,,
234.26,9.65E+07,,,
234.3,2.24E+08,,,
234.35,5.90E+08,,,
234.39,1.20E+09,,,
234.43,2.31E+09,,,
234.47,4.18E+09,,,
234.52,8.11E+09,,,
234.56,1.29E+10,,,
234.6,1.94E+10,,,
234.64,2.74E+10,,,
234.69,3.91E+10,,,
234.73,4.86E+10,,,
234.77,5.70E+10,,,
234.81,6.31E+10,,,
234.86,6.60E+10,,,
234.9,6.42E+10,,,
234.94,5.89E+10,,,
234.98,5.10E+10,,,
235.03,3.93E+10,,,
235.07,2.99E+10,,,
235.11,2.15E+10,,,
235.15,1.46E+10,,,
235.2,8.33E+09,,,
235.24,4.99E+09,,,
235.28,2.83E+09,,,
235.32,1.52E+09,,,
235.37,6.52E+08,,,
235.41,3.13E+08,,,
235.45,1.43E+08,,,
235.49,6.28E+07,,,
235.54,2.11E+07,,,
235.58,8.46E+06,,,
235.62,3.27E+06,,,
235.66,1.23E+06,,,
235.71,3.42E+05,,,
235.75,1.19E+05,,,
235.79,3.97E+04,,,
235.84,9.56E+03,,,
235.88,2.92E+03,,,
235.92,8.52E+02,,,
235.96,2.37E+02,,,
236.01,4.46E+01,,,
236.05,1.10E+01,,,
236.09,2.59E+00,,,
236.13,5.76E-01,,,
236.18,8.13E-02,,,
236.22,1.59E-02,,,
236.26,2.95E-03,,,
236.3,5.13E-04,,,
236.35,5.37E-05,,,
236.39,8.26E-06,,,
236.43,1.20E-06,,,
236.47,1.65E-07,,,
236.77,2.57E-11,,,
236.81,1.87E-10,,,
236.86,2.08E-09,,,
236.9,1.34E-08,,,
236.94,8.12E-08,,,
236.98,4.67E-07,,,
237.03,3.84E-06,,,
237.07,1.94E-05,,,
237.11,9.28E-05,,,
237.15,4.20E-04,,,
237.2,2.56E-03,,,
237.24,1.02E-02,,,
237.28,3.83E-02,,,
237.32,1.36E-01,,,
237.37,6.15E-01,,,
237.41,1.93E+00,,,
237.45,5.70E+00,,,
237.49,1.60E+01,,,
237.54,5.34E+01,,,
237.58,1.32E+02,,,
237.62,3.07E+02,,,
237.66,6.76E+02,,,
237.71,1.68E+03,,,
237.75,3.25E+03,,,
237.79,5.96E+03,,,
237.83,1.03E+04,,,
237.88,1.90E+04,,,
237.92,2.90E+04,,,
237.96,4.18E+04,,,
238,5.70E+04,,,
238.05,7.75E+04,,,
238.09,9.31E+04,,,
238.13,1.06E+05,,,
238.17,1.14E+05,,,
238.22,1.15E+05,,,
238.26,1.08E+05,,,
238.3,9.67E+04,,,
238.34,8.16E+04,,,
238.39,6.10E+04,,,
238.43,4.54E+04,,,
238.47,3.19E+04,,,
238.51,2.12E+04,,,
238.56,1.17E+04,,,
238.6,6.87E+03,,,
238.64,3.80E+03,,,
238.68,1.99E+03,,,
238.73,8.16E+02,,,
238.77,3.76E+02,,,
238.81,1.64E+02,,,
238.85,6.73E+01,,,
238.9,2.05E+01,,,
238.94,7.42E+00,,,
238.98,2.54E+00,,,
239.02,8.22E-01,,,
239.07,1.85E-01,,,
239.11,5.29E-02,,,
239.15,1.43E-02,,,
239.19,3.63E-03,,,
239.24,6.07E-04,,,
239.28,1.36E-04,,,
239.32,2.89E-05,,,
239.36,5.78E-06,,,
239.41,7.16E-07,,,
239.45,1.26E-07,,,
239.49,2.11E-08,,,
239.53,3.33E-09,,,
239.58,3.05E-10,,,
239.62,4.24E-11,,,
239.66,2.03E-57,,,
239.7,3.64E-57,,,
239.75,6.98E-57,,,
239.79,1.10E-56,,,
239.83,1.65E-56,,,
239.87,2.33E-56,,,
239.92,1.63E-10,,,
239.96,1.12E-09,,,
240,7.23E-09,,,
240.04,4.43E-08,,,
240.09,3.95E-07,,,
240.13,2.14E-06,,,
240.17,1.10E-05,,,
240.21,5.32E-05,,,
240.26,3.55E-04,,,
240.3,1.52E-03,,,
240.34,6.18E-03,,,
240.38,2.37E-02,,,
240.43,1.18E-01,,,
240.47,4.01E-01,,,
240.51,1.29E+00,,,
240.55,3.92E+00,,,
240.6,1.46E+01,,,
240.64,3.92E+01,,,
240.68,9.98E+01,,,
240.72,2.40E+02,,,
240.77,6.67E+02,,,
240.81,1.42E+03,,,
240.85,2.86E+03,,,
240.89,5.46E+03,,,
240.94,1.13E+04,,,
240.98,1.91E+04,,,
241.02,3.04E+04,,,
241.06,4.60E+04,,,
241.11,7.12E+04,,,
241.15,9.50E+04,,,
241.19,1.20E+05,,,
241.23,1.43E+05,,,
241.28,1.66E+05,,,
241.32,1.75E+05,,,
241.36,1.75E+05,,,
241.4,1.66E+05,,,
241.45,1.43E+05,,,
241.49,1.20E+05,,,
241.53,9.50E+04,,,
241.57,7.12E+04,,,
241.62,4.60E+04,,,
241.66,3.04E+04,,,
241.7,1.91E+04,,,
241.74,1.13E+04,,,
241.79,5.46E+03,,,
241.83,2.86E+03,,,
241.87,1.42E+03,,,
241.91,6.67E+02,,,
241.96,2.40E+02,,,
242,9.98E+01,,,
242.04,3.92E+01,,,
242.08,1.46E+01,,,
242.13,3.92E+00,,,
242.17,1.29E+00,,,
242.21,4.01E-01,,,
242.25,1.18E-01,,,
242.3,2.37E-02,,,
242.34,6.18E-03,,,
242.38,1.52E-03,,,
242.42,3.55E-04,,,
242.47,5.32E-05,,,
242.51,1.10E-05,,,
242.55,2.14E-06,,,
242.6,2.57E-07,,,
242.64,4.43E-08,,,
242.68,7.23E-09,,,
242.72,1.12E-09,,,
242.77,1.00E-10,,,
242.81,1.37E-11,,,
247.95,9.47E-07,,,
247.99,6.45E-06,,,
248.04,6.59E-05,,,
248.08,4.00E-04,,,
248.12,2.30E-03,,,
248.16,1.26E-02,,,
248.21,9.81E-02,,,
248.25,4.78E-01,,,
248.29,2.22E+00,,,
248.33,9.75E+00,,,
248.38,5.78E+01,,,
248.42,2.27E+02,,,
248.46,8.44E+02,,,
248.5,2.98E+03,,,
248.55,1.35E+04,,,
248.59,4.25E+04,,,
248.63,1.27E+05,,,
248.67,3.62E+05,,,
248.72,1.24E+06,,,
248.76,3.15E+06,,,
248.8,7.58E+06,,,
248.84,1.73E+07,,,
248.89,4.53E+07,,,
248.93,9.23E+07,,,
248.97,1.79E+08,,,
249.01,3.28E+08,,,
249.06,6.54E+08,,,
249.1,1.07E+09,,,
249.14,1.67E+09,,,
249.18,2.46E+09,,,
249.23,3.74E+09,,,
249.27,4.92E+09,,,
249.31,6.15E+09,,,
249.36,7.57E+09,,,
249.4,8.44E+09,,,
249.44,8.93E+09,,,
249.48,8.99E+09,,,
249.53,8.42E+09,,,
249.57,7.54E+09,,,
249.61,6.42E+09,,,
249.65,5.19E+09,,,
249.7,3.70E+09,,,
249.74,2.67E+09,,,
249.78,1.83E+09,,,
249.82,1.19E+09,,,
249.87,6.44E+08,,,
249.91,3.73E+08,,,
249.95,2.05E+08,,,
249.99,1.07E+08,,,
250.04,4.43E+07,,,
250.08,2.06E+07,,,
250.12,9.13E+06,,,
250.16,3.84E+06,,,
250.21,1.21E+06,,,
250.25,4.60E+05,,,
250.29,1.75E+05,,,
250.33,7.94E+04,,,
250.38,5.94E+04,,,
250.42,7.55E+04,,,
250.46,1.06E+05,,,
250.5,1.46E+05,,,
250.55,2.06E+05,,,
250.59,2.55E+05,,,
250.63,3.01E+05,,,
250.67,3.38E+05,,,
250.72,3.63E+05,,,
250.76,3.63E+05,,,
250.8,3.45E+05,,,
250.84,3.11E+05,,,
250.89,2.55E+05,,,
250.93,2.06E+05,,,
250.97,1.57E+05,,,
