Wavelength,Spectra,,,
171.25,3.63E-14,,,
171.3,1.07E-12,,,
171.34,1.43E-11,,,
171.38,1.70E-10,,,
171.42,1.82E-09,,,
171.47,3.04E-08,,,
171.51,2.56E-07,,,
171.55,1.93E-06,,,
171.59,1.31E-05,,,
171.64,1.23E-04,,,
171.68,6.53E-04,,,
171.72,3.12E-03,,,
171.76,1.34E-02,,,
171.81,7.09E-02,,,
171.85,2.38E-01,,,
171.89,7.20E-01,,,
171.93,1.95E+00,,,
171.98,5.83E+00,,,
172.02,1.24E+01,,,
172.06,2.37E+01,,,
172.1,4.06E+01,,,
172.15,6.85E+01,,,
172.19,9.21E+01,,,
172.23,1.11E+02,,,
172.27,1.21E+02,,,
172.32,1.15E+02,,,
172.36,9.75E+01,,,
172.4,7.45E+01,,,
172.44,5.11E+01,,,
172.49,2.74E+01,,,
172.53,1.47E+01,,,
172.57,7.11E+00,,,
172.61,3.09E+00,,,
172.66,9.33E-01,,,
172.7,3.17E-01,,,
172.74,9.70E-02,,,
172.78,2.66E-02,,,
172.83,4.53E-03,,,
172.87,9.76E-04,,,
172.91,1.89E-04,,,
172.95,3.27E-05,,,
173,3.14E-06,,,
173.04,4.28E-07,,,
173.08,5.23E-08,,,
173.12,5.73E-09,,,
173.17,3.11E-10,,,
173.21,2.68E-11,,,
173.25,2.07E-12,,,
173.29,1.43E-13,,,
173.34,4.39E-15,,,
175.51,3.32E-15,,,
175.55,4.91E-14,,,
175.59,6.56E-13,,,
175.63,7.90E-12,,,
175.68,1.53E-10,,,
175.72,1.47E-09,,,
175.76,1.27E-08,,,
175.8,9.86E-08,,,
175.85,1.11E-06,,,
175.89,6.87E-06,,,
175.93,3.83E-05,,,
175.97,1.93E-04,,,
176.02,1.26E-03,,,
176.06,5.03E-03,,,
176.1,1.82E-02,,,
176.14,5.91E-02,,,
176.19,2.24E-01,,,
176.23,5.78E-01,,,
176.27,1.35E+00,,,
176.31,2.84E+00,,,
176.36,6.22E+00,,,
176.4,1.04E+01,,,
176.44,1.57E+01,,,
176.48,2.13E+01,,,
176.53,2.71E+01,,,
176.57,2.93E+01,,,
176.61,2.85E+01,,,
176.65,2.51E+01,,,
176.7,1.85E+01,,,
176.74,1.29E+01,,,
176.78,8.15E+00,,,
176.82,4.72E+00,,,
176.87,3.27E+00,,,
176.91,1.09E+01,,,
176.95,7.09E+01,,,
176.99,4.48E+02,,,
177.04,3.92E+03,,,
177.08,1.98E+04,,,
177.12,9.07E+04,,,
177.16,3.75E+05,,,
177.21,1.92E+06,,,
177.25,6.30E+06,,,
177.29,1.87E+07,,,
177.33,5.03E+07,,,
177.38,1.50E+08,,,
177.42,3.21E+08,,,
177.46,6.19E+08,,,
177.5,1.08E+09,,,
177.55,1.88E+09,,,
177.59,2.62E+09,,,
177.63,3.29E+09,,,
177.67,3.73E+09,,,
177.72,3.79E+09,,,
177.76,3.42E+09,,,
177.8,2.80E+09,,,
177.84,2.06E+09,,,
177.89,1.22E+09,,,
177.93,7.19E+08,,,
177.97,3.82E+08,,,
178.01,1.83E+08,,,
178.06,6.34E+07,,,
178.1,2.42E+07,,,
178.14,8.35E+06,,,
178.18,2.60E+06,,,
178.23,5.26E+05,,,
178.27,1.31E+05,,,
178.31,2.93E+04,,,
178.35,5.94E+03,,,
178.4,7.52E+02,,,
178.44,4.58E+02,,,
178.48,2.09E+03,,,
178.52,1.13E+04,,,
178.57,8.16E+04,,,
178.61,3.55E+05,,,
178.65,1.40E+06,,,
178.69,4.98E+06,,,
178.74,2.12E+07,,,
178.78,6.03E+07,,,
178.82,1.56E+08,,,
178.86,3.63E+08,,,
178.91,9.09E+08,,,
178.95,1.70E+09,,,
178.99,2.86E+09,,,
179.03,4.37E+09,,,
179.08,6.45E+09,,,
179.12,7.87E+09,,,
179.16,8.70E+09,,,
179.2,8.70E+09,,,
179.25,7.56E+09,,,
179.29,6.04E+09,,,
179.33,4.37E+09,,,
179.37,2.86E+09,,,
179.42,1.47E+09,,,
179.46,7.66E+08,,,
179.5,3.63E+08,,,
179.54,1.56E+08,,,
179.59,4.69E+07,,,
179.63,1.61E+07,,,
179.67,4.98E+06,,,
179.71,1.40E+06,,,
179.76,2.48E+05,,,
179.8,5.56E+04,,,
179.84,1.13E+04,,,
179.88,2.07E+03,,,
179.93,2.17E+02,,,
179.97,3.18E+01,,,
180.01,4.23E+00,,,
180.05,5.09E-01,,,
180.1,3.13E-02,,,
180.14,3.01E-03,,,
180.18,2.62E-04,,,
180.22,2.06E-05,,,
180.27,7.48E-07,,,
182.31,2.82E-14,,,
182.35,3.86E-13,,,
182.39,4.80E-12,,,
182.44,9.79E-11,,,
182.48,9.83E-10,,,
182.52,8.97E-09,,,
182.56,7.45E-08,,,
182.61,9.18E-07,,,
182.65,6.15E-06,,,
182.69,3.75E-05,,,
182.73,2.08E-04,,,
182.78,1.54E-03,,,
182.82,6.90E-03,,,
182.86,2.81E-02,,,
182.9,1.04E-01,,,
182.95,4.66E-01,,,
182.99,1.39E+00,,,
183.03,3.77E+00,,,
183.07,9.31E+00,,,
183.12,2.52E+01,,,
183.16,5.02E+01,,,
183.2,9.10E+01,,,
183.24,1.50E+02,,,
183.29,2.45E+02,,,
183.33,3.26E+02,,,
183.37,3.94E+02,,,
183.41,4.33E+02,,,
183.46,4.27E+02,,,
183.5,3.79E+02,,,
183.54,3.06E+02,,,
183.58,2.25E+02,,,
183.63,1.34E+02,,,
183.67,7.91E+01,,,
183.71,4.27E+01,,,
183.75,2.09E+01,,,
183.8,7.50E+00,,,
183.84,2.97E+00,,,
183.88,1.07E+00,,,
183.92,3.49E-01,,,
183.97,7.55E-02,,,
184.01,1.99E-02,,,
184.05,4.79E-03,,,
184.09,1.05E-03,,,
184.14,1.37E-04,,,
184.18,2.41E-05,,,
184.22,3.86E-06,,,
184.26,5.62E-07,,,
184.31,4.44E-08,,,
184.35,6.15E-09,,,
184.39,8.26E-09,,,
184.43,5.72E-08,,,
184.48,6.14E-07,,,
184.52,3.70E-06,,,
184.56,2.03E-05,,,
184.6,1.01E-04,,,
184.65,6.62E-04,,,
184.69,2.68E-03,,,
184.73,9.89E-03,,,
184.77,3.32E-02,,,
184.82,1.33E-01,,,
184.86,3.61E-01,,,
184.9,8.96E-01,,,
184.94,2.03E+00,,,
184.99,4.93E+00,,,
185.03,9.03E+00,,,
185.07,1.51E+01,,,
185.11,2.29E+01,,,
185.16,3.40E+01,,,
185.2,4.19E+01,,,
185.24,4.71E+01,,,
185.28,4.82E+01,,,
185.33,4.35E+01,,,
185.37,3.61E+01,,,
185.41,2.73E+01,,,
185.45,1.88E+01,,,
185.5,1.04E+01,,,
185.54,5.78E+00,,,
185.58,2.94E+00,,,
185.62,1.36E+00,,,
185.67,4.57E-01,,,
185.71,1.72E-01,,,
185.75,5.98E-02,,,
185.79,2.23E-02,,,
185.84,2.40E-02,,,
185.88,6.80E-02,,,
185.92,2.03E-01,,,
185.96,5.58E-01,,,
186.01,1.74E+00,,,
186.05,3.89E+00,,,
186.09,7.95E+00,,,
186.13,1.48E+01,,,
186.18,2.83E+01,,,
186.22,4.29E+01,,,
186.26,5.92E+01,,,
186.3,7.45E+01,,,
186.35,8.72E+01,,,
186.39,8.93E+01,,,
186.43,8.33E+01,,,
186.47,7.09E+01,,,
186.52,5.09E+01,,,
186.56,3.52E+01,,,
186.6,2.22E+01,,,
186.64,1.28E+01,,,
186.69,5.63E+00,,,
186.73,2.63E+00,,,
186.77,1.12E+00,,,
186.81,4.37E-01,,,
186.86,1.18E-01,,,
186.9,3.73E-02,,,
186.94,1.07E-02,,,
186.98,2.83E-03,,,
187.03,4.67E-04,,,
187.07,9.99E-05,,,
187.11,1.95E-05,,,
187.15,3.46E-06,,,
187.2,3.85E-07,,,
187.24,2.57E-07,,,
187.28,1.16E-06,,,
187.32,5.87E-06,,,
187.37,3.96E-05,,,
187.41,1.65E-04,,,
187.45,6.27E-04,,,
187.49,2.18E-03,,,
187.54,9.08E-03,,,
187.58,2.57E-02,,,
187.62,6.67E-02,,,
187.66,1.58E-01,,,
187.71,4.09E-01,,,
187.75,7.93E-01,,,
187.79,1.41E+00,,,
187.83,2.30E+00,,,
187.88,3.81E+00,,,
187.92,5.25E+00,,,
187.96,6.82E+00,,,
188,8.43E+00,,,
188.05,1.05E+01,,,
188.09,1.23E+01,,,
188.13,1.41E+01,,,
188.17,1.58E+01,,,
188.22,1.73E+01,,,
188.26,1.77E+01,,,
188.3,1.70E+01,,,
188.34,1.54E+01,,,
188.39,1.24E+01,,,
188.43,9.58E+00,,,
188.47,6.93E+00,,,
188.51,4.67E+00,,,
188.56,2.58E+00,,,
188.6,1.47E+00,,,
188.64,7.83E-01,,,
188.69,3.18E-01,,,
188.73,1.42E-01,,,
188.77,5.81E-02,,,
188.81,2.20E-02,,,
188.86,5.78E-03,,,
188.9,1.80E-03,,,
188.94,5.15E-04,,,
188.98,1.35E-04,,,
189.03,2.24E-05,,,
189.07,5.68E-06,,,
189.11,1.18E-05,,,
189.15,1.23E-04,,,
189.2,2.27E-03,,,
189.24,2.12E-02,,,
189.28,1.81E-01,,,
189.32,1.41E+00,,,
189.37,1.63E+01,,,
189.41,1.05E+02,,,
189.45,6.13E+02,,,
189.49,3.29E+03,,,
189.54,2.37E+04,,,
189.58,1.04E+05,,,
189.62,4.20E+05,,,
189.66,1.55E+06,,,
189.71,6.97E+06,,,
189.75,2.11E+07,,,
189.79,5.82E+07,,,
189.83,1.47E+08,,,
189.88,4.15E+08,,,
189.92,8.61E+08,,,
189.96,1.64E+09,,,
190,2.84E+09,,,
190.05,5.01E+09,,,
190.09,7.13E+09,,,
190.13,9.30E+09,,,
190.17,1.11E+10,,,
190.22,1.22E+10,,,
190.26,1.20E+10,,,
190.3,1.07E+10,,,
190.34,8.77E+09,,,
190.39,6.04E+09,,,
190.43,4.06E+09,,,
190.47,2.50E+09,,,
190.51,1.40E+09,,,
190.56,6.05E+08,,,
190.6,2.79E+08,,,
190.64,1.18E+08,,,
190.68,4.55E+07,,,
190.73,1.23E+07,,,
190.77,3.88E+06,,,
190.81,1.13E+06,,,
190.85,2.99E+05,,,
190.9,5.03E+04,,,
190.94,1.10E+04,,,
190.98,2.20E+03,,,
191.02,4.29E+02,,,
191.07,9.17E+01,,,
191.11,7.12E+01,,,
191.15,7.83E+01,,,
191.19,8.46E+01,,,
191.24,8.34E+01,,,
191.28,7.47E+01,,,
191.32,6.14E+01,,,
191.36,4.62E+01,,,
191.41,2.86E+01,,,
191.45,1.77E+01,,,
191.49,1.00E+01,,,
191.53,5.19E+00,,,
191.58,2.02E+00,,,
191.62,8.61E-01,,,
191.66,3.36E-01,,,
191.7,1.20E-01,,,
191.75,2.94E-02,,,
191.79,8.62E-03,,,
191.83,2.32E-03,,,
191.87,5.72E-04,,,
191.92,8.78E-05,,,
191.96,1.78E-05,,,
192,3.30E-06,,,
192.04,5.60E-07,,,
192.09,5.40E-08,,,
192.13,7.54E-09,,,
192.17,9.64E-10,,,
192.21,1.13E-10,,,
192.26,6.84E-12,,,
192.3,6.58E-13,,,
192.34,5.80E-14,,,
194.3,2.51E-07,,,
194.34,2.79E-06,,,
194.38,2.85E-05,,,
194.42,2.68E-04,,,
194.47,3.92E-03,,,
194.51,3.05E-02,,,
194.55,2.18E-01,,,
194.59,1.44E+00,,,
194.64,1.35E+01,,,
194.68,7.34E+01,,,
194.72,3.68E+02,,,
194.76,1.70E+03,,,
194.81,1.02E+04,,,
194.85,3.89E+04,,,
194.89,1.37E+05,,,
194.93,4.41E+05,,,
194.98,1.70E+06,,,
195.02,4.55E+06,,,
195.06,1.12E+07,,,
195.1,2.53E+07,,,
195.15,6.24E+07,,,
195.19,1.17E+08,,,
195.23,2.02E+08,,,
195.27,3.20E+08,,,
195.32,5.05E+08,,,
195.36,6.63E+08,,,
195.4,8.01E+08,,,
195.45,9.01E+08,,,
195.49,9.01E+08,,,
195.53,8.29E+08,,,
195.57,7.02E+08,,,
195.62,5.08E+08,,,
195.66,3.61E+08,,,
195.7,2.41E+08,,,
195.74,1.59E+08,,,
195.79,1.08E+08,,,
195.83,1.00E+08,,,
195.87,1.11E+08,,,
195.91,1.30E+08,,,
195.96,1.53E+08,,,
196,1.62E+08,,,
196.04,1.58E+08,,,
196.08,1.42E+08,,,
196.13,1.11E+08,,,
196.17,8.29E+07,,,
196.21,5.70E+07,,,
196.25,3.60E+07,,,
196.3,1.81E+07,,,
196.34,9.48E+06,,,
196.38,4.57E+06,,,
196.42,2.03E+06,,,
196.47,6.54E+05,,,
196.51,2.41E+05,,,
196.55,8.16E+04,,,
196.59,2.54E+04,,,
196.64,5.26E+03,,,
196.68,1.36E+03,,,
196.72,3.23E+02,,,
196.76,7.07E+01,,,
196.81,9.40E+00,,,
196.85,1.70E+00,,,
196.89,2.84E-01,,,
196.93,4.36E-02,,,
196.98,3.73E-03,,,
197.02,4.74E-04,,,
197.06,5.56E-05,,,
197.1,5.98E-06,,,
197.15,3.29E-07,,,
197.19,2.93E-08,,,
197.61,1.21E-15,,,
197.66,2.50E-14,,,
197.7,2.56E-13,,,
197.74,2.42E-12,,,
197.78,2.11E-11,,,
197.83,2.82E-10,,,
197.87,2.05E-09,,,
197.91,1.37E-08,,,
197.95,8.48E-08,,,
198,7.37E-07,,,
198.04,3.80E-06,,,
198.08,1.80E-05,,,
198.12,7.90E-05,,,
198.17,4.47E-04,,,
198.21,1.63E-03,,,
198.25,5.50E-03,,,
198.29,1.71E-02,,,
198.34,6.28E-02,,,
198.38,1.63E-01,,,
198.42,3.88E-01,,,
198.46,8.55E-01,,,
198.51,2.05E+00,,,
198.55,3.75E+00,,,
198.59,6.35E+00,,,
198.63,9.92E+00,,,
198.68,1.54E+01,,,
198.72,2.01E+01,,,
198.76,2.41E+01,,,
198.8,2.67E+01,,,
198.85,2.70E+01,,,
198.89,2.49E+01,,,
198.93,2.12E+01,,,
198.97,1.66E+01,,,
199.02,1.09E+01,,,
199.06,7.15E+00,,,
199.1,4.31E+00,,,
199.14,2.40E+00,,,
199.19,1.03E+00,,,
199.23,4.76E-01,,,
199.27,2.04E-01,,,
199.31,8.03E-02,,,
199.36,2.24E-02,,,
199.4,7.35E-03,,,
199.44,2.23E-03,,,
199.48,6.23E-04,,,
199.53,1.13E-04,,,
199.57,2.63E-05,,,
199.61,5.65E-06,,,
199.65,1.12E-06,,,
199.7,1.32E-07,,,
199.74,2.18E-08,,,
199.78,3.32E-09,,,
199.82,4.66E-10,,,
199.87,3.58E-11,,,
199.91,4.19E-12,,,
199.95,4.52E-13,,,
199.99,4.50E-14,,,
200.04,2.25E-15,,,
200.89,1.04E-08,,,
200.93,1.09E-07,,,
200.97,1.06E-06,,,
201.01,9.51E-06,,,
201.06,1.32E-04,,,
201.1,9.93E-04,,,
201.14,6.90E-03,,,
201.18,4.44E-02,,,
201.23,4.06E-01,,,
201.27,2.19E+00,,,
201.31,1.09E+01,,,
201.35,5.03E+01,,,
201.4,3.04E+02,,,
201.44,1.17E+03,,,
201.48,4.19E+03,,,
201.52,1.38E+04,,,
201.57,5.52E+04,,,
201.61,1.53E+05,,,
201.65,3.91E+05,,,
201.69,9.25E+05,,,
201.74,2.43E+06,,,
201.78,4.83E+06,,,
201.82,8.86E+06,,,
201.86,1.50E+07,,,
201.91,2.61E+07,,,
201.95,3.71E+07,,,
201.99,4.88E+07,,,
202.03,5.93E+07,,,
202.08,6.79E+07,,,
202.12,6.92E+07,,,
202.16,6.53E+07,,,
202.21,5.43E+07,,,
202.25,4.29E+07,,,
202.29,3.14E+07,,,
202.33,2.12E+07,,,
202.38,1.16E+07,,,
202.42,6.60E+06,,,
202.46,3.46E+06,,,
202.5,1.68E+06,,,
202.55,6.07E+05,,,
202.59,2.46E+05,,,
202.63,9.25E+04,,,
202.67,3.21E+04,,,
202.72,7.68E+03,,,
202.76,2.24E+03,,,
202.8,6.02E+02,,,
202.84,1.50E+02,,,
202.89,2.36E+01,,,
202.93,4.93E+00,,,
202.97,9.51E-01,,,
203.01,1.70E-01,,,
203.06,1.76E-02,,,
203.1,2.64E-03,,,
203.14,3.65E-04,,,
203.18,4.67E-05,,,
203.23,3.20E-06,,,
203.27,3.43E-07,,,
203.31,3.40E-08,,,
203.35,3.11E-09,,,
204.93,6.50E-07,,,
204.97,6.34E-06,,,
205.01,5.74E-05,,,
205.05,4.81E-04,,,
205.1,6.18E-03,,,
205.14,4.38E-02,,,
205.18,2.87E-01,,,
205.22,1.75E+00,,,
205.27,1.51E+01,,,
205.31,7.75E+01,,,
205.35,3.70E+02,,,
205.39,1.64E+03,,,
205.44,9.44E+03,,,
205.48,3.52E+04,,,
205.52,1.22E+05,,,
205.56,3.92E+05,,,
205.61,1.52E+06,,,
205.65,4.11E+06,,,
205.69,1.03E+07,,,
205.73,2.41E+07,,,
205.78,6.26E+07,,,
205.82,1.23E+08,,,
205.86,2.25E+08,,,
205.9,3.81E+08,,,
205.95,6.62E+08,,,
205.99,9.47E+08,,,
206.03,1.26E+09,,,
206.07,1.55E+09,,,
206.12,1.80E+09,,,
206.16,1.87E+09,,,
206.2,1.80E+09,,,
206.24,1.61E+09,,,
206.29,1.26E+09,,,
206.33,9.47E+08,,,
206.37,6.62E+08,,,
206.41,4.30E+08,,,
206.46,2.25E+08,,,
206.5,1.23E+08,,,
206.54,6.26E+07,,,
206.58,2.95E+07,,,
206.63,1.03E+07,,,
206.67,4.11E+06,,,
206.71,1.52E+06,,,
206.75,5.19E+05,,,
206.8,1.22E+05,,,
206.84,3.56E+04,,,
206.88,9.86E+03,,,
206.92,2.85E+03,,,
206.97,1.05E+03,,,
207.01,1.02E+03,,,
207.05,1.38E+03,,,
207.09,2.01E+03,,,
207.14,3.09E+03,,,
207.18,4.09E+03,,,
207.22,5.08E+03,,,
207.26,5.87E+03,,,
207.31,6.36E+03,,,
207.35,6.24E+03,,,
207.39,5.68E+03,,,
207.43,4.81E+03,,,
207.48,3.51E+03,,,
207.52,2.51E+03,,,
207.56,1.67E+03,,,
207.6,1.03E+03,,,
207.65,5.05E+02,,,
207.69,2.64E+02,,,
207.73,1.28E+02,,,
207.77,5.73E+01,,,
207.82,1.90E+01,,,
207.86,7.21E+00,,,
207.9,2.54E+00,,,
207.94,8.32E-01,,,
207.99,1.85E-01,,,
208.03,5.13E-02,,,
208.07,1.32E-02,,,
208.11,3.15E-03,,,
208.16,4.73E-04,,,
208.2,9.53E-05,,,
208.24,1.79E-05,,,
208.28,3.10E-06,,,
208.33,3.14E-07,,,
208.37,4.61E-08,,,
208.41,6.30E-09,,,
208.45,7.98E-10,,,
208.5,5.43E-11,,,
208.54,5.82E-12,,,
208.58,5.79E-13,,,
209.05,7.05E-15,,,
209.09,6.89E-14,,,
209.14,1.07E-12,,,
209.18,8.91E-12,,,
209.22,6.87E-11,,,
209.26,4.93E-10,,,
209.31,5.24E-09,,,
209.35,3.19E-08,,,
209.39,1.81E-07,,,
209.43,9.57E-07,,,
209.48,6.92E-06,,,
209.52,3.10E-05,,,
209.56,1.30E-04,,,
209.6,5.03E-04,,,
209.65,2.47E-03,,,
209.69,8.16E-03,,,
209.73,2.50E-02,,,
209.77,7.15E-02,,,
209.82,2.39E-01,,,
209.86,5.81E-01,,,
209.9,1.31E+00,,,
209.94,2.75E+00,,,
209.99,6.31E+00,,,
210.03,1.14E+01,,,
210.07,1.96E+01,,,
210.11,3.41E+01,,,
210.16,8.39E+01,,,
210.2,2.36E+02,,,
210.24,8.19E+02,,,
210.28,3.01E+03,,,
210.33,1.47E+04,,,
210.37,4.87E+04,,,
210.41,1.51E+05,,,
210.45,4.35E+05,,,
210.5,1.48E+06,,,
210.54,3.64E+06,,,
210.58,8.31E+06,,,
210.62,1.77E+07,,,
210.67,4.10E+07,,,
210.71,7.42E+07,,,
210.75,1.25E+08,,,
210.79,1.96E+08,,,
210.84,3.10E+08,,,
210.88,4.13E+08,,,
210.92,5.13E+08,,,
210.96,5.92E+08,,,
211.01,6.41E+08,,,
211.05,6.29E+08,,,
211.09,5.75E+08,,,
211.13,4.89E+08,,,
211.18,3.61E+08,,,
211.22,2.62E+08,,,
211.26,1.76E+08,,,
211.3,1.10E+08,,,
211.35,5.57E+07,,,
211.39,2.97E+07,,,
211.43,1.47E+07,,,
211.47,6.80E+06,,,
211.52,2.34E+06,,,
211.56,9.20E+05,,,
211.6,3.36E+05,,,
211.64,1.14E+05,,,
211.69,2.69E+04,,,
211.73,7.79E+03,,,
211.77,2.10E+03,,,
211.81,5.32E+02,,,
211.86,9.25E+01,,,
211.9,2.74E+01,,,
211.94,1.36E+01,,,
211.98,1.07E+01,,,
212.03,9.18E+00,,,
212.07,7.77E+00,,,
212.11,6.16E+00,,,
212.15,4.55E+00,,,
212.2,2.82E+00,,,
212.24,1.77E+00,,,
212.28,1.04E+00,,,
212.32,5.68E-01,,,
212.37,2.41E-01,,,
212.41,1.12E-01,,,
212.45,4.85E-02,,,
212.49,1.96E-02,,,
212.54,5.69E-03,,,
212.58,1.95E-03,,,
212.62,6.25E-04,,,
212.66,1.86E-04,,,
212.71,3.71E-05,,,
212.75,9.41E-06,,,
212.79,2.23E-06,,,
212.83,4.90E-07,,,
212.88,6.68E-08,,,
212.92,1.25E-08,,,
212.96,2.19E-09,,,
213,3.56E-10,,,
213.05,3.32E-11,,,
213.09,4.60E-12,,,
213.13,5.94E-13,,,
213.17,7.14E-14,,,
213.22,4.57E-15,,,
217.09,1.40E-14,,,
217.13,1.24E-13,,,
217.17,1.03E-12,,,
217.21,7.94E-12,,,
217.26,9.32E-11,,,
217.3,6.20E-10,,,
217.34,3.86E-09,,,
217.38,2.24E-08,,,
217.43,1.84E-07,,,
217.47,9.23E-07,,,
217.51,4.32E-06,,,
217.55,1.89E-05,,,
217.6,1.09E-04,,,
217.64,4.09E-04,,,
217.68,1.44E-03,,,
217.72,4.73E-03,,,
217.77,1.91E-02,,,
217.81,5.39E-02,,,
217.85,1.43E-01,,,
217.89,3.53E-01,,,
217.94,9.95E-01,,,
217.98,2.12E+00,,,
218.02,4.21E+00,,,
218.06,7.83E+00,,,
218.11,1.55E+01,,,
218.15,2.48E+01,,,
218.19,3.70E+01,,,
218.23,5.18E+01,,,
218.28,7.16E+01,,,
218.32,8.62E+01,,,
218.36,9.69E+01,,,
218.4,1.02E+02,,,
218.45,9.87E+01,,,
218.49,8.93E+01,,,
218.53,7.55E+01,,,
218.57,5.97E+01,,,
218.62,4.05E+01,,,
218.66,2.76E+01,,,
218.7,1.75E+01,,,
218.74,1.04E+01,,,
218.79,4.95E+00,,,
218.83,2.53E+00,,,
218.87,1.21E+00,,,
218.91,5.41E-01,,,
218.96,1.80E-01,,,
219,6.92E-02,,,
219.04,2.49E-02,,,
219.08,8.36E-03,,,
219.13,1.95E-03,,,
219.17,5.63E-04,,,
219.21,1.52E-04,,,
219.25,3.85E-05,,,
219.3,6.28E-06,,,
219.34,1.37E-06,,,
219.38,2.78E-07,,,
219.42,5.28E-08,,,
219.47,6.03E-09,,,
219.51,9.85E-10,,,
219.55,1.51E-10,,,
219.59,2.15E-11,,,
219.64,1.72E-12,,,
219.68,2.12E-13,,,
219.72,2.43E-14,,,
220.02,2.21E-15,,,
220.06,1.94E-14,,,
220.1,1.59E-13,,,
220.15,2.02E-12,,,
220.19,1.44E-11,,,
220.23,9.53E-11,,,
220.27,5.94E-10,,,
220.32,5.32E-09,,,
220.36,2.86E-08,,,
220.4,1.44E-07,,,
220.44,6.79E-07,,,
220.49,4.31E-06,,,
220.53,1.75E-05,,,
220.57,6.69E-05,,,
220.61,2.39E-04,,,
220.66,1.07E-03,,,
220.7,3.30E-03,,,
220.74,9.54E-03,,,
220.78,2.58E-02,,,
220.83,8.18E-02,,,
220.87,1.91E-01,,,
220.91,4.19E-01,,,
220.95,8.59E-01,,,
221,1.92E+00,,,
221.04,3.41E+00,,,
221.08,5.65E+00,,,
221.12,8.78E+00,,,
221.17,1.39E+01,,,
221.21,1.86E+01,,,
221.25,2.34E+01,,,
221.29,2.76E+01,,,
221.34,3.09E+01,,,
221.38,3.14E+01,,,
221.42,2.99E+01,,,
221.46,2.66E+01,,,
221.51,2.11E+01,,,
221.55,1.62E+01,,,
221.59,1.17E+01,,,
221.63,7.91E+00,,,
221.68,4.43E+00,,,
221.72,2.62E+00,,,
221.76,1.64E+00,,,
221.8,1.94E+00,,,
221.85,9.29E+00,,,
221.89,4.17E+01,,,
221.93,1.80E+02,,,
221.97,7.33E+02,,,
222.02,3.86E+03,,,
222.06,1.36E+04,,,
222.1,4.47E+04,,,
222.14,1.38E+05,,,
222.19,5.18E+05,,,
222.23,1.39E+06,,,
222.27,3.48E+06,,,
222.32,1.01E+07,,,
222.36,2.19E+07,,,
222.4,4.48E+07,,,
222.44,8.62E+07,,,
222.49,1.80E+08,,,
222.53,3.03E+08,,,
222.57,4.84E+08,,,
222.61,7.34E+08,,,
222.66,1.16E+09,,,
222.7,1.60E+09,,,
222.74,2.13E+09,,,
222.78,2.75E+09,,,
222.83,3.64E+09,,,
222.87,4.42E+09,,,
222.91,5.20E+09,,,
222.95,5.89E+09,,,
223,6.50E+09,,,
223.04,6.65E+09,,,
223.08,6.47E+09,,,
223.12,5.95E+09,,,
223.17,4.93E+09,,,
223.21,3.97E+09,,,
223.25,3.00E+09,,,
223.29,2.13E+09,,,
223.34,1.27E+09,,,
223.38,7.85E+08,,,
223.42,4.54E+08,,,
223.46,2.46E+08,,,
223.51,1.05E+08,,,
223.55,4.92E+07,,,
223.59,2.17E+07,,,
223.63,8.94E+06,,,
223.68,2.70E+06,,,
223.72,9.66E+05,,,
223.76,3.24E+05,,,
223.8,1.02E+05,,,
223.85,2.19E+04,,,
223.89,5.95E+03,,,
223.93,1.52E+03,,,
223.97,3.62E+02,,,
224.02,5.53E+01,,,
224.06,1.15E+01,,,
224.1,2.22E+00,,,
224.14,4.04E-01,,,
224.19,4.38E-02,,,
224.23,6.90E-03,,,
224.27,1.02E-03,,,
224.31,1.41E-04,,,
224.36,1.09E-05,,,
224.4,1.30E-06,,,
226.27,2.85E-08,,,
226.31,2.37E-07,,,
226.35,1.84E-06,,,
226.4,2.20E-05,,,
226.44,1.49E-04,,,
226.48,9.50E-04,,,
226.52,5.70E-03,,,
226.57,4.90E-02,,,
226.61,2.55E-01,,,
226.65,1.25E+00,,,
226.69,5.77E+00,,,
226.74,3.57E+01,,,
226.78,1.43E+02,,,
226.82,5.41E+02,,,
226.86,1.92E+03,,,
226.91,8.55E+03,,,
226.95,2.64E+04,,,
226.99,7.66E+04,,,
227.03,2.09E+05,,,
227.08,6.71E+05,,,
227.12,1.59E+06,,,
227.16,3.56E+06,,,
227.2,7.46E+06,,,
227.25,1.73E+07,,,
227.29,3.15E+07,,,
227.33,5.41E+07,,,
227.37,8.73E+07,,,
227.42,1.46E+08,,,
227.46,2.04E+08,,,
227.5,2.70E+08,,,
227.54,3.35E+08,,,
227.59,4.02E+08,,,
227.63,4.35E+08,,,
227.67,4.42E+08,,,
227.71,4.22E+08,,,
227.76,3.65E+08,,,
227.8,3.03E+08,,,
227.84,2.37E+08,,,
227.88,1.74E+08,,,
227.93,1.08E+08,,,
227.97,6.93E+07,,,
228.01,4.16E+07,,,
228.05,2.35E+07,,,
228.1,1.06E+07,,,
228.14,5.19E+06,,,
228.18,2.40E+06,,,
228.22,1.04E+06,,,
228.27,3.37E+05,,,
228.31,1.28E+05,,,
228.35,4.53E+04,,,
228.39,1.51E+04,,,
228.44,3.53E+03,,,
228.48,1.03E+03,,,
228.52,2.81E+02,,,
228.56,7.22E+01,,,
228.61,1.21E+01,,,
228.65,2.71E+00,,,
228.69,5.70E-01,,,
228.73,1.13E-01,,,
228.78,1.36E-02,,,
228.82,2.35E-03,,,
228.86,3.79E-04,,,
228.9,5.77E-05,,,
228.95,5.03E-06,,,
228.99,6.65E-07,,,
