Wavelength,Spectra,,
284.56,7.25E-10,,
284.6,3.77E-09,,
284.64,1.89E-08,,
284.69,1.34E-07,,
284.73,6.14E-07,,
284.77,2.71E-06,,
284.81,1.15E-05,,
284.86,6.62E-05,,
284.9,2.57E-04,,
284.94,9.60E-04,,
284.98,3.45E-03,,
285.03,1.61E-02,,
285.07,5.31E-02,,
285.11,1.68E-01,,
285.15,5.12E-01,,
285.2,1.95E+00,,
285.24,5.42E+00,,
285.28,1.45E+01,,
285.32,3.75E+01,,
285.37,1.16E+02,,
285.41,2.74E+02,,
285.45,6.21E+02,,
285.49,1.36E+03,,
285.54,3.41E+03,,
285.58,6.82E+03,,
285.62,1.31E+04,,
285.66,2.42E+04,,
285.71,4.95E+04,,
285.75,8.39E+04,,
285.79,1.37E+05,,
285.83,2.14E+05,,
285.88,3.55E+05,,
285.92,5.10E+05,,
285.96,7.04E+05,,
286,9.34E+05,,
286.05,1.26E+06,,
286.09,1.53E+06,,
286.13,1.79E+06,,
286.17,2.01E+06,,
286.22,2.20E+06,,
286.26,2.27E+06,,
286.3,2.25E+06,,
286.34,2.14E+06,,
286.39,1.91E+06,,
286.43,1.66E+06,,
286.47,1.40E+06,,
286.51,1.13E+06,,
286.56,8.14E+05,,
286.6,6.02E+05,,
286.64,4.28E+05,,
286.68,2.92E+05,,
286.73,1.72E+05,,
286.77,1.08E+05,,
286.81,6.47E+04,,
286.85,3.75E+04,,
286.9,1.79E+04,,
286.94,9.50E+03,,
286.98,4.84E+03,,
287.02,2.37E+03,,
287.07,9.22E+02,,
287.11,4.14E+02,,
287.15,1.79E+02,,
287.19,7.43E+01,,
287.24,2.35E+01,,
287.28,8.92E+00,,
287.32,3.27E+00,,
287.36,1.15E+00,,
287.41,2.95E-01,,
287.45,9.50E-02,,
287.49,2.94E-02,,
287.53,8.77E-03,,
287.58,1.83E-03,,
287.62,4.99E-04,,
287.66,1.31E-04,,
287.7,3.31E-05,,
287.75,5.60E-06,,
287.79,1.30E-06,,
287.83,2.88E-07,,
287.87,6.16E-08,,
287.92,8.49E-09,,
287.96,1.66E-09,,
288,3.13E-10,,
294.68,5.06E-10,,
294.72,2.51E-09,,
294.76,1.20E-08,,
294.8,5.54E-08,,
294.85,3.56E-07,,
294.89,1.52E-06,,
294.93,6.21E-06,,
294.97,2.46E-05,,
295.02,1.30E-04,,
295.06,4.73E-04,,
295.1,1.66E-03,,
295.14,5.63E-03,,
295.19,2.46E-02,,
295.23,7.67E-02,,
295.27,2.31E-01,,
295.31,6.69E-01,,
295.36,2.41E+00,,
295.4,6.43E+00,,
295.44,1.66E+01,,
295.48,4.12E+01,,
295.53,1.22E+02,,
295.57,2.80E+02,,
295.61,6.17E+02,,
295.65,1.31E+03,,
295.7,3.21E+03,,
295.74,6.29E+03,,
295.78,1.19E+04,,
295.82,2.17E+04,,
295.87,4.37E+04,,
295.91,7.34E+04,,
295.95,1.19E+05,,
295.99,1.86E+05,,
296.04,3.08E+05,,
296.08,4.44E+05,,
296.12,6.16E+05,,
296.16,8.24E+05,,
296.21,1.13E+06,,
296.25,1.39E+06,,
296.29,1.65E+06,,
296.33,1.89E+06,,
296.38,2.13E+06,,
296.42,2.25E+06,,
296.46,2.29E+06,,
296.51,2.23E+06,,
296.55,2.09E+06,,
296.59,1.89E+06,,
296.63,1.65E+06,,
296.68,1.32E+06,,
296.72,1.06E+06,,
296.76,8.24E+05,,
296.8,6.16E+05,,
296.85,4.06E+05,,
296.89,2.80E+05,,
296.93,1.86E+05,,
296.97,1.19E+05,,
297.02,6.47E+04,,
297.06,3.82E+04,,
297.1,2.17E+04,,
297.14,1.19E+04,,
297.19,5.34E+03,,
297.23,2.70E+03,,
297.27,1.31E+03,,
297.31,6.17E+02,,
297.36,2.28E+02,,
297.4,9.87E+01,,
297.44,4.12E+01,,
297.48,1.66E+01,,
297.53,5.05E+00,,
297.57,1.87E+00,,
297.61,6.69E-01,,
297.65,2.31E-01,,
297.7,5.79E-02,,
297.74,1.84E-02,,
297.78,5.63E-03,,
297.82,1.66E-03,,
297.87,3.44E-04,,
297.91,9.36E-05,,
297.95,2.46E-05,,
297.99,6.21E-06,,
298.04,1.06E-06,,
298.08,2.47E-07,,
298.12,5.54E-08,,
298.16,1.20E-08,,
298.21,1.69E-09,,
298.25,3.37E-10,,
312.87,3.95E-10,,
312.92,2.62E-09,,
312.96,1.15E-08,,
313,4.87E-08,,
313.04,2.00E-07,,
313.09,1.12E-06,,
313.13,4.27E-06,,
313.17,1.58E-05,,
313.21,5.66E-05,,
313.26,2.66E-04,,
313.3,8.87E-04,,
313.34,2.86E-03,,
313.38,8.93E-03,,
313.43,3.54E-02,,
313.47,1.03E-01,,
313.51,2.89E-01,,
313.55,7.87E-01,,
313.6,2.63E+00,,
313.64,6.65E+00,,
313.68,1.63E+01,,
313.72,3.87E+01,,
313.77,1.09E+02,,
313.81,2.40E+02,,
313.85,5.13E+02,,
313.89,1.06E+03,,
313.94,2.51E+03,,
313.98,4.83E+03,,
314.02,9.00E+03,,
314.06,1.62E+04,,
314.11,3.24E+04,,
314.15,5.43E+04,,
314.19,8.82E+04,,
314.23,1.39E+05,,
314.28,2.33E+05,,
314.32,3.41E+05,,
314.36,4.82E+05,,
314.4,6.60E+05,,
314.45,9.35E+05,,
314.49,1.19E+06,,
314.53,1.47E+06,,
314.57,1.76E+06,,
314.62,2.10E+06,,
314.66,2.33E+06,,
314.7,2.50E+06,,
314.74,2.61E+06,,
314.79,2.62E+06,,
314.83,2.54E+06,,
314.87,2.38E+06,,
314.91,2.16E+06,,
314.96,1.83E+06,,
315,1.54E+06,,
315.04,1.26E+06,,
315.08,9.97E+05,,
315.13,7.11E+05,,
315.17,5.23E+05,,
315.21,3.73E+05,,
315.25,2.57E+05,,
315.3,1.54E+05,,
315.34,9.90E+04,,
315.38,6.15E+04,,
315.42,3.70E+04,,
315.47,1.87E+04,,
315.51,1.05E+04,,
315.55,5.66E+03,,
315.59,2.97E+03,,
315.64,1.27E+03,,
315.68,6.17E+02,,
315.72,2.91E+02,,
315.76,1.33E+02,,
315.81,4.77E+01,,
315.85,2.03E+01,,
315.89,8.35E+00,,
315.93,3.32E+00,,
315.98,1.01E+00,,
316.02,3.72E-01,,
316.06,1.34E-01,,
316.1,4.64E-02,,
316.15,1.18E-02,,
316.19,3.81E-03,,
316.23,1.19E-03,,
316.27,3.61E-04,,
316.32,7.75E-05,,
316.36,2.18E-05,,
316.4,5.94E-06,,
316.44,1.57E-06,,
316.49,2.83E-07,,
316.53,6.95E-08,,
316.57,1.65E-08,,
316.62,2.62E-09,,
316.66,5.79E-10,,
324.35,4.07E-10,,
324.4,2.53E-09,,
324.44,1.05E-08,,
324.48,4.26E-08,,
324.52,1.67E-07,,
324.57,8.85E-07,,
324.61,3.25E-06,,
324.65,1.16E-05,,
324.69,3.99E-05,,
324.74,1.80E-04,,
324.78,5.82E-04,,
324.82,1.82E-03,,
324.86,5.54E-03,,
324.91,2.13E-02,,
324.95,6.06E-02,,
324.99,1.67E-01,,
325.03,4.47E-01,,
325.08,1.47E+00,,
325.12,3.67E+00,,
325.16,8.90E+00,,
325.2,2.10E+01,,
325.25,5.86E+01,,
325.29,1.29E+02,,
325.33,2.75E+02,,
325.37,5.71E+02,,
325.42,1.36E+03,,
325.46,2.64E+03,,
325.5,4.95E+03,,
325.54,9.04E+03,,
325.59,1.84E+04,,
325.63,3.13E+04,,
325.67,5.18E+04,,
325.71,8.31E+04,,
325.76,1.44E+05,,
325.8,2.16E+05,,
325.84,3.15E+05,,
325.88,4.44E+05,,
325.93,6.56E+05,,
325.97,8.66E+05,,
326.01,1.11E+06,,
326.05,1.38E+06,,
326.1,1.74E+06,,
326.14,2.02E+06,,
326.18,2.28E+06,,
326.22,2.49E+06,,
326.27,2.67E+06,,
326.31,2.74E+06,,
326.35,2.71E+06,,
326.39,2.61E+06,,
326.44,2.39E+06,,
326.48,2.15E+06,,
326.52,1.88E+06,,
326.56,1.59E+06,,
326.61,1.24E+06,,
326.65,9.84E+05,,
326.69,7.57E+05,,
326.73,5.65E+05,,
326.78,3.75E+05,,
326.82,2.62E+05,,
326.86,1.77E+05,,
326.9,1.16E+05,,
326.95,6.59E+04,,
326.99,4.04E+04,,
327.03,2.41E+04,,
327.07,1.39E+04,,
327.12,6.72E+03,,
327.16,3.63E+03,,
327.2,1.90E+03,,
327.24,9.67E+02,,
327.29,3.98E+02,,
327.33,1.89E+02,,
327.37,8.73E+01,,
327.41,3.91E+01,,
327.46,1.37E+01,,
327.5,5.73E+00,,
327.54,2.33E+00,,
327.58,9.17E-01,,
327.63,2.74E-01,,
327.67,1.01E-01,,
327.71,3.61E-02,,
327.75,1.25E-02,,
327.8,3.19E-03,,
327.84,1.03E-03,,
327.88,3.25E-04,,
327.92,9.92E-05,,
327.97,2.16E-05,,
328.01,6.15E-06,,
328.05,1.70E-06,,
328.09,4.57E-07,,
328.14,8.47E-08,,
328.18,2.13E-08,,
328.22,5.18E-09,,
328.26,1.22E-09,,
336.47,6.97E-07,,
336.51,2.84E-06,,
336.55,1.12E-05,,
336.6,6.02E-05,,
336.64,2.24E-04,,
336.68,8.09E-04,,
336.72,2.84E-03,,
336.77,1.31E-02,,
336.81,4.34E-02,,
336.85,1.39E-01,,
336.9,5.75E-01,,
336.94,1.73E+00,,
336.98,5.08E+00,,
337.02,1.45E+01,,
337.07,5.15E+01,,
337.11,1.38E+02,,
337.15,3.59E+02,,
337.19,9.08E+02,,
337.24,2.79E+03,,
337.28,6.62E+03,,
337.32,1.53E+04,,
337.36,3.44E+04,,
337.41,9.11E+04,,
337.45,1.92E+05,,
337.49,3.95E+05,,
337.53,7.88E+05,,
337.58,1.80E+06,,
337.62,3.37E+06,,
337.66,6.14E+06,,
337.7,1.09E+07,,
337.75,2.14E+07,,
337.79,3.56E+07,,
337.83,5.77E+07,,
337.87,9.08E+07,,
337.92,1.54E+08,,
337.96,2.28E+08,,
338,3.27E+08,,
338.04,4.58E+08,,
338.09,6.69E+08,,
338.13,8.78E+08,,
338.17,1.12E+09,,
338.21,1.39E+09,,
338.26,1.75E+09,,
338.3,2.05E+09,,
338.34,2.32E+09,,
338.38,2.56E+09,,
338.43,2.78E+09,,
338.47,2.88E+09,,
338.51,2.90E+09,,
338.55,2.84E+09,,
338.6,2.66E+09,,
338.64,2.44E+09,,
338.68,2.19E+09,,
338.72,1.90E+09,,
338.77,1.54E+09,,
338.81,1.25E+09,,
338.85,9.96E+08,,
338.89,7.69E+08,,
338.94,5.35E+08,,
338.98,3.88E+08,,
339.02,2.74E+08,,
339.06,1.88E+08,,
339.11,1.13E+08,,
339.15,7.26E+07,,
339.19,4.55E+07,,
339.23,2.77E+07,,
339.28,1.43E+07,,
339.32,8.20E+06,,
339.36,4.56E+06,,
339.4,2.47E+06,,
339.45,1.10E+06,,
339.49,5.62E+05,,
339.53,2.82E+05,,
339.57,1.45E+05,,
339.62,8.62E+04,,
339.66,1.00E+05,,
339.7,1.75E+05,,
339.74,3.46E+05,,
339.79,8.19E+05,,
339.83,1.60E+06,,
339.87,3.03E+06,,
339.91,5.59E+06,,
339.96,1.16E+07,,
340,2.01E+07,,
340.04,3.39E+07,,
340.08,5.56E+07,,
340.13,9.95E+07,,
340.17,1.54E+08,,
340.21,2.31E+08,,
340.25,3.37E+08,,
340.3,5.20E+08,,
340.34,7.14E+08,,
340.38,9.54E+08,,
340.42,1.24E+09,,
340.47,1.65E+09,,
340.51,2.02E+09,,
340.55,2.40E+09,,
340.59,2.77E+09,,
340.64,3.20E+09,,
340.68,3.47E+09,,
340.72,3.67E+09,,
340.76,3.77E+09,,
340.81,3.75E+09,,
340.85,3.63E+09,,
340.89,3.41E+09,,
340.93,3.12E+09,,
340.98,2.68E+09,,
341.02,2.30E+09,,
341.06,1.93E+09,,
341.1,1.57E+09,,
341.15,1.16E+09,,
341.19,8.90E+08,,
341.23,6.62E+08,,
341.27,4.79E+08,,
341.32,3.07E+08,,
341.36,2.09E+08,,
341.4,1.38E+08,,
341.44,8.89E+07,,
341.49,4.93E+07,,
341.53,2.98E+07,,
341.57,1.75E+07,,
341.61,1.00E+07,,
341.66,4.81E+06,,
341.7,2.59E+06,,
341.74,1.35E+06,,
341.78,6.89E+05,,
341.83,2.85E+05,,
341.87,1.36E+05,,
341.91,6.35E+04,,
341.95,2.87E+04,,
342,1.03E+04,,
342.04,4.37E+03,,
342.08,1.81E+03,,
342.12,7.29E+02,,
342.17,2.25E+02,,
342.21,8.52E+01,,
342.25,3.14E+01,,
342.29,1.12E+01,,
342.34,3.00E+00,,
342.38,1.01E+00,,
342.42,3.31E-01,,
342.46,1.05E-01,,
342.51,2.43E-02,,
342.55,7.27E-03,,
342.59,2.12E-03,,
342.63,6.01E-04,,
342.68,1.20E-04,,
342.72,3.19E-05,,
342.76,8.25E-06,,
342.8,2.08E-06,,
342.85,3.58E-07,,
344,2.15E-07,,
344.04,8.63E-07,,
344.08,3.37E-06,,
344.12,1.28E-05,,
344.17,6.56E-05,,
344.21,2.35E-04,,
344.25,8.18E-04,,
344.29,2.78E-03,,
344.34,1.23E-02,,
344.38,3.94E-02,,
344.42,1.23E-01,,
344.46,3.72E-01,,
344.51,1.43E+00,,
344.55,4.09E+00,,
344.59,1.14E+01,,
344.63,3.07E+01,,
344.68,1.03E+02,,
344.72,2.61E+02,,
344.76,6.48E+02,,
344.8,1.57E+03,,
344.85,4.54E+03,,
344.89,1.03E+04,,
344.93,2.28E+04,,
344.97,4.92E+04,,
345.02,1.24E+05,,
345.06,2.51E+05,,
345.1,4.97E+05,,
345.14,9.56E+05,,
345.19,2.09E+06,,
345.23,3.78E+06,,
345.27,6.67E+06,,
345.31,1.15E+07,,
345.36,2.17E+07,,
345.4,3.51E+07,,
345.44,5.53E+07,,
345.48,8.48E+07,,
345.53,1.39E+08,,
345.57,2.01E+08,,
345.61,2.83E+08,,
345.65,3.87E+08,,
345.7,5.52E+08,,
345.74,7.11E+08,,
345.78,8.92E+08,,
345.82,1.09E+09,,
345.87,1.35E+09,,
345.91,1.55E+09,,
345.95,1.74E+09,,
345.99,1.90E+09,,
346.04,2.04E+09,,
346.08,2.09E+09,,
346.12,2.09E+09,,
346.16,2.04E+09,,
346.21,1.90E+09,,
346.25,1.74E+09,,
346.29,1.55E+09,,
346.33,1.35E+09,,
346.38,1.09E+09,,
346.42,8.92E+08,,
346.46,7.11E+08,,
346.5,5.52E+08,,
346.55,3.87E+08,,
346.59,2.83E+08,,
346.63,2.01E+08,,
346.67,1.39E+08,,
346.72,8.48E+07,,
346.76,5.53E+07,,
346.8,3.51E+07,,
346.84,2.17E+07,,
346.89,1.15E+07,,
346.93,6.67E+06,,
346.97,3.78E+06,,
347.01,2.09E+06,,
347.06,9.56E+05,,
347.1,4.97E+05,,
347.14,2.51E+05,,
347.18,1.24E+05,,
347.23,4.92E+04,,
347.27,2.28E+04,,
347.31,1.03E+04,,
347.35,4.54E+03,,
347.4,1.57E+03,,
347.44,6.48E+02,,
347.48,2.61E+02,,
347.52,1.03E+02,,
347.57,3.07E+01,,
347.61,1.14E+01,,
347.65,4.09E+00,,
347.69,1.45E+00,,
347.74,4.53E-01,,
347.78,3.69E-01,,
347.82,7.64E-01,,
347.86,2.09E+00,,
347.91,7.50E+00,,
347.95,2.03E+01,,
347.99,5.35E+01,,
348.03,1.37E+02,,
348.08,4.31E+02,,
348.12,1.04E+03,,
348.16,2.46E+03,,
348.2,5.65E+03,,
348.25,1.54E+04,,
348.29,3.34E+04,,
348.33,7.05E+04,,
348.37,1.45E+05,,
348.42,3.44E+05,,
348.46,6.66E+05,,
348.5,1.26E+06,,
348.54,2.31E+06,,
348.59,4.78E+06,,
348.63,8.28E+06,,
348.67,1.40E+07,,
348.71,2.30E+07,,
348.76,4.13E+07,,
348.8,6.41E+07,,
348.84,9.68E+07,,
348.88,1.43E+08,,
348.93,2.23E+08,,
348.97,3.09E+08,,
349.01,4.18E+08,,
349.05,5.50E+08,,
349.1,7.48E+08,,
349.14,9.28E+08,,
349.18,1.12E+09,,
349.22,1.32E+09,,
349.27,1.56E+09,,
349.31,1.74E+09,,
349.35,1.88E+09,,
349.39,1.98E+09,,
349.44,2.04E+09,,
349.48,2.02E+09,,
349.52,1.96E+09,,
349.56,1.85E+09,,
349.61,1.65E+09,,
349.65,1.47E+09,,
349.69,1.27E+09,,
349.73,1.07E+09,,
349.78,8.36E+08,,
349.82,6.65E+08,,
349.86,5.15E+08,,
349.9,3.88E+08,,
349.95,2.63E+08,,
349.99,1.87E+08,,
350.03,1.30E+08,,
350.07,8.76E+07,,
350.12,5.16E+07,,
350.16,3.29E+07,,
350.2,2.04E+07,,
350.25,1.08E+07,,
350.29,6.32E+06,,
350.33,3.61E+06,,
350.37,2.02E+06,,
350.42,9.67E+05,,
350.46,5.55E+05,,
350.5,3.57E+05,,
350.54,2.84E+05,,
350.59,3.00E+05,,
350.63,3.69E+05,,
350.67,4.74E+05,,
350.71,6.09E+05,,
350.76,8.14E+05,,
350.8,1.00E+06,,
350.84,1.20E+06,,
350.88,1.40E+06,,
350.93,1.64E+06,,
350.97,1.81E+06,,
351.01,1.94E+06,,
351.05,2.03E+06,,
351.1,2.08E+06,,
351.14,2.05E+06,,
351.18,1.97E+06,,
351.22,1.85E+06,,
351.27,1.64E+06,,
351.31,1.45E+06,,
351.35,1.25E+06,,
351.39,1.05E+06,,
351.44,8.13E+05,,
351.48,6.43E+05,,
351.52,4.96E+05,,
351.56,3.73E+05,,
351.61,2.52E+05,,
351.65,1.79E+05,,
351.69,1.24E+05,,
351.73,8.38E+04,,
351.78,5.14E+04,,
351.82,3.74E+04,,
351.86,3.42E+04,,
351.9,4.60E+04,,
351.95,9.93E+04,,
351.99,2.05E+05,,
352.03,4.26E+05,,
352.07,8.71E+05,,
352.12,2.06E+06,,
352.16,3.99E+06,,
352.2,7.53E+06,,
352.24,1.38E+07,,
352.29,2.86E+07,,
352.33,4.97E+07,,
352.37,8.40E+07,,
352.41,1.39E+08,,
352.46,2.50E+08,,
352.5,3.89E+08,,
352.54,5.90E+08,,
352.58,8.74E+08,,
352.63,1.38E+09,,
352.67,1.92E+09,,
352.71,2.61E+09,,
352.75,3.47E+09,,
352.8,4.77E+09,,
352.84,5.98E+09,,
352.88,7.32E+09,,
352.92,8.73E+09,,
352.97,1.05E+10,,
353.01,1.19E+10,,
353.05,1.31E+10,,
353.09,1.41E+10,,
353.14,1.50E+10,,
353.18,1.54E+10,,
353.22,1.55E+10,,
353.26,1.52E+10,,
353.31,1.46E+10,,
353.35,1.39E+10,,
353.39,1.31E+10,,
353.43,1.21E+10,,
353.48,1.09E+10,,
353.52,9.93E+09,,
353.56,8.98E+09,,
353.6,8.07E+09,,
353.65,6.99E+09,,
353.69,6.17E+09,,
353.73,5.38E+09,,
353.77,4.64E+09,,
353.82,3.77E+09,,
353.86,3.13E+09,,
353.9,2.56E+09,,
353.94,2.04E+09,,
353.99,1.50E+09,,
354.03,1.14E+09,,
354.07,8.49E+08,,
354.11,6.17E+08,,
354.16,4.00E+08,,
354.2,2.75E+08,,
354.24,1.85E+08,,
354.28,1.21E+08,,
354.33,6.86E+07,,
354.37,4.24E+07,,
354.41,2.56E+07,,
354.45,1.50E+07,,
354.5,7.45E+06,,
354.54,4.14E+06,,
354.58,2.24E+06,,
354.62,1.18E+06,,
354.67,5.11E+05,,
354.71,2.55E+05,,
354.75,1.24E+05,,
354.79,5.84E+04,,
354.84,2.21E+04,,
354.88,9.87E+03,,
354.92,4.30E+03,,
354.96,1.82E+03,,
355.01,6.02E+02,,
355.05,2.41E+02,,
355.09,9.42E+01,,
355.13,3.58E+01,,
355.18,1.03E+01,,
355.22,3.71E+00,,
355.26,1.30E+00,,
355.3,4.44E-01,,
355.35,1.12E-01,,
355.39,3.60E-02,,
355.43,1.14E-02,,
355.47,3.81E-03,,
355.52,2.02E-03,,
355.56,3.66E-03,,
355.6,9.21E-03,,
355.64,2.38E-02,,
355.69,7.55E-02,,
355.73,1.85E-01,,
355.77,4.42E-01,,
355.81,1.03E+00,,
355.86,2.87E+00,,
355.9,6.33E+00,,
355.94,1.36E+01,,
355.98,2.85E+01,,
356.03,6.94E+01,,
356.07,1.38E+02,,
356.11,2.66E+02,,
356.15,5.00E+02,,
356.2,1.07E+03,,
356.24,1.90E+03,,
356.28,3.30E+03,,
356.32,5.59E+03,,
356.37,1.04E+04,,
356.41,1.67E+04,,
356.45,2.60E+04,,
356.49,3.96E+04,,
356.54,6.47E+04,,
356.58,9.30E+04,,
356.62,1.31E+05,,
356.66,1.79E+05,,
356.71,2.55E+05,,
356.75,3.30E+05,,
356.79,4.16E+05,,
356.83,5.12E+05,,
356.88,6.40E+05,,
356.92,7.44E+05,,
356.96,8.44E+05,,
357.01,9.53E+05,,
357.05,1.02E+06,,
357.09,1.07E+06,,
357.13,1.09E+06,,
357.18,1.07E+06,,
357.22,1.03E+06,,
357.26,9.71E+05,,
357.3,8.90E+05,,
357.35,7.70E+05,,
357.39,6.66E+05,,
357.43,5.62E+05,,
357.47,4.63E+05,,
357.52,3.51E+05,,
357.56,2.73E+05,,
357.6,2.07E+05,,
357.64,1.53E+05,,
357.69,1.02E+05,,
357.73,7.10E+04,,
357.77,4.84E+04,,
357.81,3.22E+04,,
357.86,1.87E+04,,
357.9,1.17E+04,,
357.94,7.20E+03,,
357.98,4.31E+03,,
358.03,2.19E+03,,
358.07,1.24E+03,,
358.11,6.80E+02,,
358.15,3.66E+02,,
358.2,1.62E+02,,
358.24,8.25E+01,,
358.28,4.09E+01,,
358.32,1.98E+01,,
358.37,7.68E+00,,
358.41,3.51E+00,,
358.45,1.56E+00,,
358.49,6.78E-01,,
358.54,2.31E-01,,
358.58,9.47E-02,,
358.62,3.79E-02,,
358.66,1.48E-02,,
358.71,4.40E-03,,
358.75,1.62E-03,,
358.79,5.84E-04,,
358.83,2.05E-04,,
358.88,5.34E-05,,
358.92,1.77E-05,,
358.96,5.73E-06,,
359,1.81E-06,,
359.05,4.12E-07,,
359.09,1.23E-07,,
359.13,3.57E-08,,
359.17,1.01E-08,,
359.22,2.02E-09,,
359.26,5.42E-10,,
359.3,1.42E-10,,
360.83,2.38E-07,,
360.87,8.89E-07,,
360.92,4.46E-06,,
360.96,1.58E-05,,
361,5.43E-05,,
361.04,1.83E-04,,
361.09,8.07E-04,,
361.13,2.57E-03,,
361.17,8.00E-03,,
361.21,2.43E-02,,
361.26,9.42E-02,,
361.3,2.71E-01,,
361.34,7.60E-01,,
361.38,2.08E+00,,
361.43,7.09E+00,,
361.47,1.84E+01,,
361.51,4.66E+01,,
361.55,1.15E+02,,
361.6,3.44E+02,,
361.64,8.05E+02,,
361.68,1.84E+03,,
361.72,4.10E+03,,
361.77,1.08E+04,,
361.81,2.28E+04,,
361.85,4.69E+04,,
361.89,9.42E+04,,
361.94,2.18E+05,,
361.98,4.15E+05,,
362.02,7.70E+05,,
362.06,1.40E+06,,
362.11,2.84E+06,,
362.15,4.87E+06,,
362.19,8.16E+06,,
362.23,1.33E+07,,
362.28,2.38E+07,,
362.32,3.69E+07,,
362.36,5.58E+07,,
362.4,8.22E+07,,
362.45,1.29E+08,,
362.49,1.80E+08,,
362.53,2.46E+08,,
362.57,3.27E+08,,
362.62,4.51E+08,,
362.66,5.69E+08,,
362.7,6.99E+08,,
362.74,8.38E+08,,
362.79,1.02E+09,,
362.83,1.16E+09,,
362.87,1.28E+09,,
362.91,1.39E+09,,
362.96,1.48E+09,,
363,1.52E+09,,
363.04,1.52E+09,,
363.08,1.48E+09,,
363.13,1.39E+09,,
363.17,1.28E+09,,
363.21,1.16E+09,,
363.25,1.02E+09,,
363.3,8.39E+08,,
363.34,6.99E+08,,
363.38,5.69E+08,,
363.42,4.52E+08,,
363.47,3.28E+08,,
363.51,2.47E+08,,
363.55,1.83E+08,,
363.59,1.35E+08,,
363.64,9.31E+07,,
363.68,7.42E+07,,
363.72,6.74E+07,,
363.77,7.68E+07,,
363.81,1.00E+08,,
363.85,1.42E+08,,
363.89,2.05E+08,,
363.94,3.22E+08,,
363.98,4.55E+08,,
364.02,6.29E+08,,
364.06,8.49E+08,,
364.11,1.20E+09,,
364.15,1.53E+09,,
364.19,1.91E+09,,
364.23,2.33E+09,,
364.28,2.89E+09,,
364.32,3.34E+09,,
364.36,3.77E+09,,
364.4,4.15E+09,,
364.45,4.52E+09,,
364.49,4.72E+09,,
364.53,4.80E+09,,
364.57,4.77E+09,,
364.62,4.58E+09,,
364.66,4.31E+09,,
364.7,3.96E+09,,
364.74,3.56E+09,,
364.79,3.00E+09,,
364.83,2.55E+09,,
364.87,2.12E+09,,
364.91,1.72E+09,,
364.96,1.27E+09,,
365,9.77E+08,,
365.04,7.32E+08,,
365.08,5.35E+08,,
365.13,3.50E+08,,
365.17,2.42E+08,,
365.21,1.64E+08,,
365.25,1.08E+08,,
365.3,6.22E+07,,
365.34,3.89E+07,,
365.38,2.38E+07,,
365.42,1.42E+07,,
365.47,7.16E+06,,
365.51,4.04E+06,,
365.55,2.23E+06,,
365.59,1.20E+06,,
365.64,5.34E+05,,
365.68,2.72E+05,,
365.72,1.35E+05,,
365.76,6.57E+04,,
365.81,2.57E+04,,
365.85,1.18E+04,,
365.89,5.32E+03,,
365.93,2.33E+03,,
365.98,8.03E+02,,
366.02,3.34E+02,,
366.06,1.35E+02,,
366.1,5.35E+01,,
366.15,1.62E+01,,
366.19,6.09E+00,,
366.23,2.23E+00,,
366.27,7.95E-01,,
366.32,2.12E-01,,
366.36,7.18E-02,,
366.4,2.37E-02,,
366.44,7.65E-03,,
366.49,1.80E-03,,
366.53,5.49E-04,,
366.57,1.64E-04,,
366.61,4.77E-05,,
366.66,9.85E-06,,
366.7,2.72E-06,,
366.74,7.31E-07,,
367.25,2.52E-07,,
367.29,9.19E-07,,
367.34,4.49E-06,,
367.38,1.55E-05,,
367.42,5.26E-05,,
367.46,1.74E-04,,
367.51,7.49E-04,,
367.55,2.35E-03,,
367.59,7.20E-03,,
367.63,2.15E-02,,
367.68,8.20E-02,,
367.72,2.33E-01,,
367.76,6.45E-01,,
367.8,1.75E+00,,
367.85,5.87E+00,,
367.89,1.51E+01,,
367.93,3.78E+01,,
367.97,9.27E+01,,
368.02,2.75E+02,,
368.06,6.40E+02,,
368.1,1.45E+03,,
368.14,3.23E+03,,
368.19,8.45E+03,,
368.23,1.78E+04,,
368.27,3.66E+04,,
368.31,7.35E+04,,
368.36,1.70E+05,,
368.4,3.24E+05,,
368.44,6.03E+05,,
368.48,1.10E+06,,
368.53,2.24E+06,,
368.57,3.86E+06,,
368.61,6.50E+06,,
368.65,1.07E+07,,
368.7,1.93E+07,,
368.74,3.01E+07,,
368.78,4.59E+07,,
368.82,6.84E+07,,
368.87,1.09E+08,,
368.91,1.54E+08,,
368.95,2.13E+08,,
368.99,2.87E+08,,
369.04,4.03E+08,,
369.08,5.15E+08,,
369.12,6.44E+08,,
369.16,7.86E+08,,
369.21,9.75E+08,,
369.25,1.13E+09,,
369.29,1.28E+09,,
369.33,1.41E+09,,
369.38,1.55E+09,,
369.42,1.62E+09,,
369.46,1.66E+09,,
369.5,1.66E+09,,
369.55,1.60E+09,,
369.59,1.52E+09,,
