Wavelength,Spectra,,
321.12,2.06E-06,,
321.16,8.96E-06,,
321.21,5.40E-05,,
321.25,2.20E-04,,
321.29,8.66E-04,,
321.33,3.31E-03,,
321.38,1.70E-02,,
321.42,6.05E-02,,
321.46,2.10E-01,,
321.5,7.04E-01,,
321.55,3.06E+00,,
321.59,9.60E+00,,
321.63,2.92E+01,,
321.67,8.59E+01,,
321.72,3.18E+02,,
321.76,8.74E+02,,
321.8,2.33E+03,,
321.84,6.03E+03,,
321.89,1.90E+04,,
321.93,4.58E+04,,
321.97,1.07E+05,,
322.01,2.43E+05,,
322.06,6.50E+05,,
322.1,1.38E+06,,
322.14,2.83E+06,,
322.18,5.65E+06,,
322.23,1.28E+07,,
322.27,2.38E+07,,
322.31,4.30E+07,,
322.35,7.52E+07,,
322.4,1.45E+08,,
322.44,2.37E+08,,
322.48,3.75E+08,,
322.52,5.76E+08,,
322.57,9.44E+08,,
322.61,1.35E+09,,
322.65,1.88E+09,,
322.69,2.54E+09,,
322.74,3.53E+09,,
322.78,4.45E+09,,
322.82,5.43E+09,,
322.86,6.42E+09,,
322.91,7.60E+09,,
322.95,8.39E+09,,
322.99,8.99E+09,,
323.03,9.34E+09,,
323.08,9.39E+09,,
323.12,9.10E+09,,
323.16,8.56E+09,,
323.2,7.81E+09,,
323.25,6.67E+09,,
323.29,5.68E+09,,
323.33,4.69E+09,,
323.38,3.53E+09,,
323.42,2.72E+09,,
323.46,2.03E+09,,
323.5,1.47E+09,,
323.55,9.44E+08,,
323.59,6.39E+08,,
323.63,4.19E+08,,
323.67,2.67E+08,,
323.72,1.45E+08,,
323.76,8.61E+07,,
323.8,4.96E+07,,
323.84,2.77E+07,,
323.89,1.28E+07,,
323.93,6.68E+06,,
323.97,3.38E+06,,
324.01,1.65E+06,,
324.06,6.50E+05,,
324.1,2.97E+05,,
324.14,1.32E+05,,
324.18,5.68E+04,,
324.23,1.90E+04,,
324.27,7.62E+03,,
324.31,2.97E+03,,
324.35,1.12E+03,,
324.4,3.18E+02,,
324.44,1.12E+02,,
324.48,3.83E+01,,
324.52,1.27E+01,,
324.57,3.06E+00,,
324.61,9.48E-01,,
324.65,2.85E-01,,
324.69,8.32E-02,,
324.74,1.91E-02,,
324.78,1.23E-02,,
324.82,2.83E-02,,
324.86,9.31E-02,,
324.91,4.14E-01,,
324.95,1.33E+00,,
324.99,4.12E+00,,
325.03,1.24E+01,,
325.08,4.73E+01,,
325.12,1.33E+02,,
325.16,3.64E+02,,
325.2,9.66E+02,,
325.25,3.13E+03,,
325.29,7.77E+03,,
325.33,1.87E+04,,
325.37,4.37E+04,,
325.42,1.21E+05,,
325.46,2.64E+05,,
325.5,5.59E+05,,
325.54,1.15E+06,,
325.59,2.71E+06,,
325.63,5.21E+06,,
325.67,9.71E+06,,
325.71,1.76E+07,,
325.76,3.53E+07,,
325.8,5.98E+07,,
325.84,9.81E+07,,
325.88,1.56E+08,,
325.93,2.68E+08,,
325.97,3.99E+08,,
326.01,5.76E+08,,
326.05,8.07E+08,,
326.1,1.18E+09,,
326.14,1.55E+09,,
326.18,1.97E+09,,
326.22,2.43E+09,,
326.27,3.03E+09,,
326.31,3.49E+09,,
326.35,3.91E+09,,
326.39,4.24E+09,,
326.44,4.51E+09,,
326.48,4.58E+09,,
326.52,4.51E+09,,
326.56,4.31E+09,,
326.61,3.91E+09,,
326.65,3.49E+09,,
326.69,3.03E+09,,
326.73,2.55E+09,,
326.78,1.97E+09,,
326.82,1.55E+09,,
326.86,1.18E+09,,
326.9,8.74E+08,,
326.95,5.76E+08,,
326.99,3.99E+08,,
327.03,2.68E+08,,
327.07,1.75E+08,,
327.12,9.81E+07,,
327.16,5.98E+07,,
327.2,3.53E+07,,
327.24,2.03E+07,,
327.29,9.71E+06,,
327.33,5.21E+06,,
327.37,2.71E+06,,
327.41,1.37E+06,,
327.46,5.59E+05,,
327.5,2.64E+05,,
327.54,1.21E+05,,
327.58,5.37E+04,,
327.63,1.87E+04,,
327.67,7.77E+03,,
327.71,3.13E+03,,
327.75,1.23E+03,,
327.8,3.64E+02,,
327.84,1.33E+02,,
327.88,4.73E+01,,
327.92,1.63E+01,,
327.97,4.12E+00,,
328.01,1.33E+00,,
328.05,4.14E-01,,
328.09,1.26E-01,,
328.14,2.71E-02,,
328.18,7.68E-03,,
328.22,2.11E-03,,
328.26,5.63E-04,,
328.31,1.04E-04,,
328.35,2.58E-05,,
328.39,6.25E-06,,
328.43,1.47E-06,,
329.24,4.17E-07,,
329.28,1.77E-06,,
329.33,1.03E-05,,
329.37,4.09E-05,,
329.41,1.58E-04,,
329.45,5.89E-04,,
329.5,2.94E-03,,
329.54,1.03E-02,,
329.58,3.51E-02,,
329.62,1.16E-01,,
329.67,4.97E-01,,
329.71,1.54E+00,,
329.75,4.63E+00,,
329.79,1.35E+01,,
329.84,4.95E+01,,
329.88,1.35E+02,,
329.92,3.60E+02,,
329.96,9.28E+02,,
330.01,2.91E+03,,
330.05,7.04E+03,,
330.09,1.65E+04,,
330.14,4.61E+04,,
330.18,1.01E+05,,
330.22,2.16E+05,,
330.26,4.48E+05,,
330.31,1.07E+06,,
330.35,2.08E+06,,
330.39,3.92E+06,,
330.43,7.17E+06,,
330.48,1.47E+07,,
330.52,2.52E+07,,
330.56,4.19E+07,,
330.6,6.78E+07,,
330.65,1.19E+08,,
330.69,1.80E+08,,
330.73,2.65E+08,,
330.77,3.79E+08,,
330.82,5.68E+08,,
330.86,7.61E+08,,
330.9,9.89E+08,,
330.94,1.25E+09,,
330.99,1.60E+09,,
331.03,1.90E+09,,
331.07,2.18E+09,,
331.11,2.43E+09,,
331.16,2.68E+09,,
331.2,2.79E+09,,
331.24,2.84E+09,,
331.28,2.79E+09,,
331.33,2.63E+09,,
331.37,2.43E+09,,
331.41,2.18E+09,,
331.45,1.90E+09,,
331.5,1.53E+09,,
331.54,1.25E+09,,
331.58,9.89E+08,,
331.62,7.61E+08,,
331.67,5.26E+08,,
331.71,3.79E+08,,
331.75,2.65E+08,,
331.79,1.80E+08,,
331.84,1.07E+08,,
331.88,6.78E+07,,
331.92,4.19E+07,,
331.96,2.52E+07,,
332.01,1.28E+07,,
332.05,7.17E+06,,
332.09,3.92E+06,,
332.13,2.08E+06,,
332.18,9.02E+05,,
332.22,4.48E+05,,
332.26,2.16E+05,,
332.3,1.01E+05,,
332.35,3.77E+04,,
332.39,1.65E+04,,
332.43,7.04E+03,,
332.47,2.91E+03,,
332.52,9.28E+02,,
332.56,3.60E+02,,
332.6,1.35E+02,,
332.64,4.95E+01,,
332.69,1.35E+01,,
332.73,4.63E+00,,
332.77,1.54E+00,,
332.81,4.97E-01,,
332.86,1.16E-01,,
332.9,3.51E-02,,
332.94,1.03E-02,,
332.98,2.94E-03,,
333.03,5.89E-04,,
333.07,1.58E-04,,
333.11,4.09E-05,,
333.15,1.03E-05,,
333.2,1.77E-06,,
333.24,4.17E-07,,
335.24,1.60E-06,,
335.28,6.64E-06,,
335.32,2.67E-05,,
335.36,1.05E-04,,
335.41,5.53E-04,,
335.45,2.03E-03,,
335.49,7.26E-03,,
335.53,2.52E-02,,
335.58,1.15E-01,,
335.62,3.74E-01,,
335.66,1.19E+00,,
335.7,3.65E+00,,
335.75,1.43E+01,,
335.79,4.15E+01,,
335.83,1.17E+02,,
335.87,3.19E+02,,
335.92,1.08E+03,,
335.96,2.76E+03,,
336,6.89E+03,,
336.04,1.67E+04,,
336.09,4.87E+04,,
336.13,1.11E+05,,
336.17,2.45E+05,,
336.21,5.28E+05,,
336.26,1.32E+06,,
336.3,2.67E+06,,
336.34,5.25E+06,,
336.38,1.00E+07,,
336.43,2.16E+07,,
336.47,3.88E+07,,
336.51,6.76E+07,,
336.55,1.15E+08,,
336.6,2.13E+08,,
336.64,3.39E+08,,
336.68,5.24E+08,,
336.72,7.87E+08,,
336.77,1.26E+09,,
336.81,1.78E+09,,
336.85,2.44E+09,,
336.9,3.49E+09,,
336.94,4.49E+09,,
336.98,5.62E+09,,
337.02,6.85E+09,,
337.07,8.42E+09,,
337.11,9.62E+09,,
337.15,1.07E+10,,
337.19,1.16E+10,,
337.24,1.22E+10,,
337.28,1.24E+10,,
337.32,1.22E+10,,
337.36,1.17E+10,,
337.41,1.07E+10,,
337.45,9.62E+09,,
337.49,8.42E+09,,
337.53,7.16E+09,,
337.58,5.62E+09,,
337.62,4.49E+09,,
337.66,3.49E+09,,
337.7,2.63E+09,,
337.75,1.78E+09,,
337.79,1.26E+09,,
337.83,8.68E+08,,
337.87,5.81E+08,,
337.92,3.39E+08,,
337.96,2.13E+08,,
338,1.30E+08,,
338.04,7.73E+07,,
338.09,3.88E+07,,
338.13,2.17E+07,,
338.17,1.20E+07,,
338.21,6.64E+06,,
338.26,3.72E+06,,
338.3,3.31E+06,,
338.34,4.29E+06,,
338.38,6.85E+06,,
338.43,1.32E+07,,
338.47,2.21E+07,,
338.51,3.61E+07,,
338.55,5.75E+07,,
338.6,9.91E+07,,
338.64,1.48E+08,,
338.68,2.16E+08,,
338.72,3.06E+08,,
338.77,4.54E+08,,
338.81,6.03E+08,,
338.85,7.80E+08,,
338.89,9.82E+08,,
338.94,1.26E+09,,
338.98,1.49E+09,,
339.02,1.71E+09,,
339.06,1.91E+09,,
339.11,2.11E+09,,
339.15,2.21E+09,,
339.19,2.26E+09,,
339.23,2.25E+09,,
339.28,2.14E+09,,
339.32,2.00E+09,,
339.36,1.81E+09,,
339.4,1.60E+09,,
339.45,1.32E+09,,
339.49,1.09E+09,,
339.53,8.78E+08,,
339.57,6.89E+08,,
339.62,4.89E+08,,
339.66,3.60E+08,,
339.7,2.58E+08,,
339.74,1.80E+08,,
339.79,1.10E+08,,
339.83,7.19E+07,,
339.87,4.57E+07,,
339.91,2.83E+07,,
339.96,1.49E+07,,
340,8.69E+06,,
340.04,4.91E+06,,
340.08,2.70E+06,,
340.13,1.23E+06,,
340.17,6.36E+05,,
340.21,3.19E+05,,
340.25,1.56E+05,,
340.3,6.13E+04,,
340.34,2.81E+04,,
340.38,1.26E+04,,
340.42,5.45E+03,,
340.47,1.85E+03,,
340.51,7.53E+02,,
340.55,2.99E+02,,
340.59,1.15E+02,,
340.64,3.37E+01,,
340.68,1.22E+01,,
340.72,4.30E+00,,
340.76,1.48E+00,,
340.81,3.72E-01,,
340.85,1.20E-01,,
340.89,3.75E-02,,
340.93,1.14E-02,,
340.98,2.48E-03,,
341.02,7.11E-04,,
341.06,1.98E-04,,
341.1,5.35E-05,,
341.15,1.00E-05,,
341.19,2.55E-06,,
341.23,6.31E-07,,
347.82,1.44E-06,,
347.86,5.57E-06,,
347.91,2.91E-05,,
347.95,1.06E-04,,
347.99,3.77E-04,,
348.03,1.31E-03,,
348.08,5.94E-03,,
348.12,1.94E-02,,
348.16,6.16E-02,,
348.2,1.91E-01,,
348.25,7.55E-01,,
348.29,2.21E+00,,
348.33,6.27E+00,,
348.37,1.74E+01,,
348.42,5.99E+01,,
348.46,1.57E+02,,
348.5,3.99E+02,,
348.54,9.88E+02,,
348.59,2.97E+03,,
348.63,6.93E+03,,
348.67,1.58E+04,,
348.71,3.51E+04,,
348.76,9.15E+04,,
348.8,1.92E+05,,
348.84,3.90E+05,,
348.88,7.75E+05,,
348.93,1.76E+06,,
348.97,3.30E+06,,
349.01,6.02E+06,,
349.05,1.07E+07,,
349.1,2.11E+07,,
349.14,3.54E+07,,
349.18,5.78E+07,,
349.22,9.20E+07,,
349.27,1.58E+08,,
349.31,2.37E+08,,
349.35,3.47E+08,,
349.39,4.94E+08,,
349.44,7.39E+08,,
349.48,9.92E+08,,
349.52,1.30E+09,,
349.56,1.65E+09,,
349.61,2.15E+09,,
349.65,2.59E+09,,
349.69,3.03E+09,,
349.73,3.45E+09,,
349.78,3.91E+09,,
349.82,4.20E+09,,
349.86,4.40E+09,,
349.9,4.49E+09,,
349.95,4.43E+09,,
349.99,4.26E+09,,
350.03,3.99E+09,,
350.07,3.64E+09,,
350.12,3.13E+09,,
350.16,2.70E+09,,
350.2,2.26E+09,,
350.25,1.75E+09,,
350.29,1.38E+09,,
350.33,1.06E+09,,
350.37,7.98E+08,,
350.42,5.37E+08,,
350.46,3.80E+08,,
350.5,2.62E+08,,
350.54,1.76E+08,,
350.59,1.03E+08,,
350.63,6.51E+07,,
350.67,4.02E+07,,
350.71,2.41E+07,,
350.76,1.23E+07,,
350.8,6.96E+06,,
350.84,3.84E+06,,
350.88,2.07E+06,,
350.93,9.16E+05,,
350.97,4.65E+05,,
351.01,2.29E+05,,
351.05,1.10E+05,,
351.1,4.26E+04,,
351.14,1.93E+04,,
351.18,8.54E+03,,
351.22,3.68E+03,,
351.27,1.24E+03,,
351.31,5.01E+02,,
351.35,1.98E+02,,
351.39,7.64E+01,,
351.44,2.23E+01,,
351.48,8.11E+00,,
351.52,2.87E+00,,
351.56,9.90E-01,,
351.61,2.52E-01,,
351.65,8.19E-02,,
351.69,2.59E-02,,
351.73,8.00E-03,,
351.78,1.77E-03,,
351.82,5.16E-04,,
351.86,1.46E-04,,
351.9,4.03E-05,,
351.95,7.78E-06,,
351.99,2.03E-06,,
352.03,5.13E-07,,
359.47,1.90E-07,,
359.51,7.15E-07,,
359.56,3.63E-06,,
359.6,1.30E-05,,
359.64,4.51E-05,,
359.68,1.53E-04,,
359.73,6.83E-04,,
359.77,2.20E-03,,
359.81,6.89E-03,,
359.85,2.11E-02,,
359.9,8.27E-02,,
359.94,2.40E-01,,
359.98,6.78E-01,,
360.02,1.87E+00,,
360.07,6.43E+00,,
360.11,1.68E+01,,
360.15,4.28E+01,,
360.19,1.07E+02,,
360.24,3.22E+02,,
360.28,7.57E+02,,
360.32,1.74E+03,,
360.36,3.90E+03,,
360.41,1.03E+04,,
360.45,2.19E+04,,
360.49,4.54E+04,,
360.53,9.18E+04,,
360.58,2.14E+05,,
360.62,4.09E+05,,
360.66,7.62E+05,,
360.7,1.39E+06,,
360.75,2.84E+06,,
360.79,4.89E+06,,
360.83,8.23E+06,,
360.87,1.35E+07,,
360.92,2.42E+07,,
360.96,3.76E+07,,
361,5.71E+07,,
361.04,8.44E+07,,
361.09,1.33E+08,,
361.13,1.86E+08,,
361.17,2.54E+08,,
361.21,3.39E+08,,
361.26,4.69E+08,,
361.3,5.92E+08,,
361.34,7.29E+08,,
361.38,8.76E+08,,
361.43,1.06E+09,,
361.47,1.21E+09,,
361.51,1.34E+09,,
361.55,1.45E+09,,
361.6,1.55E+09,,
361.64,1.59E+09,,
361.68,1.59E+09,,
361.72,1.55E+09,,
361.77,1.45E+09,,
361.81,1.34E+09,,
361.85,1.21E+09,,
361.89,1.06E+09,,
361.94,8.76E+08,,
361.98,7.29E+08,,
362.02,5.92E+08,,
362.06,4.69E+08,,
362.11,3.39E+08,,
362.15,2.54E+08,,
362.19,1.86E+08,,
362.23,1.33E+08,,
362.28,8.44E+07,,
362.32,5.71E+07,,
362.36,3.76E+07,,
362.4,2.42E+07,,
362.45,1.35E+07,,
362.49,8.23E+06,,
362.53,4.89E+06,,
362.57,2.84E+06,,
362.62,1.39E+06,,
362.66,7.62E+05,,
362.7,4.09E+05,,
362.74,2.14E+05,,
362.79,9.18E+04,,
362.83,4.54E+04,,
362.87,2.19E+04,,
362.91,1.03E+04,,
362.96,3.90E+03,,
363,1.74E+03,,
363.04,7.57E+02,,
363.08,3.22E+02,,
363.13,1.07E+02,,
363.17,4.28E+01,,
363.21,1.68E+01,,
363.25,6.43E+00,,
363.3,1.87E+00,,
363.34,6.78E-01,,
363.38,2.40E-01,,
363.42,8.27E-02,,
363.47,2.11E-02,,
363.51,6.89E-03,,
363.55,2.20E-03,,
363.59,6.83E-04,,
363.64,1.53E-04,,
363.68,4.51E-05,,
363.72,1.30E-05,,
363.77,2.63E-06,,
363.81,7.15E-07,,
363.85,1.90E-07,,
367.04,8.74E-07,,
367.08,3.18E-06,,
367.12,1.13E-05,,
367.17,5.32E-05,,
367.21,1.79E-04,,
367.25,5.90E-04,,
367.29,1.90E-03,,
367.34,7.90E-03,,
367.38,2.41E-02,,
367.42,7.17E-02,,
367.46,2.09E-01,,
367.51,7.67E-01,,
367.55,2.12E+00,,
367.59,5.70E+00,,
367.63,1.50E+01,,
367.68,4.87E+01,,
367.72,1.22E+02,,
367.76,2.97E+02,,
367.8,7.07E+02,,
367.85,2.03E+03,,
367.89,4.58E+03,,
367.93,1.01E+04,,
367.97,2.18E+04,,
368.02,5.51E+04,,
368.06,1.13E+05,,
368.1,2.25E+05,,
368.14,4.40E+05,,
368.19,9.82E+05,,
368.23,1.82E+06,,
368.27,3.29E+06,,
368.31,5.81E+06,,
368.36,1.15E+07,,
368.4,1.92E+07,,
368.44,3.14E+07,,
368.48,5.02E+07,,
368.53,8.74E+07,,
368.57,1.33E+08,,
368.61,1.96E+08,,
368.65,2.84E+08,,
368.7,4.36E+08,,
368.74,5.99E+08,,
368.78,8.03E+08,,
368.82,1.05E+09,,
368.87,1.43E+09,,
368.91,1.77E+09,,
368.95,2.15E+09,,
368.99,2.55E+09,,
369.04,3.05E+09,,
369.08,3.43E+09,,
369.12,3.77E+09,,
369.16,4.04E+09,,
369.21,4.27E+09,,
369.25,4.35E+09,,
369.29,4.32E+09,,
369.33,4.20E+09,,
369.38,3.92E+09,,
369.42,3.61E+09,,
369.46,3.25E+09,,
369.5,2.85E+09,,
369.55,2.35E+09,,
369.59,1.96E+09,,
369.63,1.59E+09,,
369.67,1.27E+09,,
369.72,9.22E+08,,
369.76,6.96E+08,,
369.8,5.13E+08,,
369.84,3.69E+08,,
369.89,2.37E+08,,
369.93,1.62E+08,,
369.97,1.08E+08,,
370.01,7.03E+07,,
370.06,3.98E+07,,
370.1,2.46E+07,,
370.14,1.49E+07,,
370.18,8.77E+06,,
370.23,4.38E+06,,
370.27,2.45E+06,,
370.31,1.34E+06,,
370.35,7.15E+05,,
370.4,3.16E+05,,
370.44,1.60E+05,,
370.48,7.91E+04,,
370.53,3.17E+04,,
370.57,1.49E+04,,
370.61,6.82E+03,,
370.65,3.05E+03,,
370.7,1.08E+03,,
370.74,4.59E+02,,
370.78,1.91E+02,,
370.82,7.72E+01,,
370.87,2.41E+01,,
370.91,9.28E+00,,
370.95,3.48E+00,,
370.99,1.28E+00,,
371.04,3.53E-01,,
371.08,1.23E-01,,
371.12,4.17E-02,,
371.16,1.38E-02,,
371.21,3.37E-03,,
371.25,1.06E-03,,
371.29,3.26E-04,,
371.33,9.80E-05,,
371.38,2.11E-05,,
371.42,6.01E-06,,
371.46,1.67E-06,,
371.5,4.55E-07,,
380.73,1.65E-07,,
380.77,5.77E-07,,
380.81,1.98E-06,,
380.86,8.95E-06,,
380.9,2.92E-05,,
380.94,9.33E-05,,
380.98,2.92E-04,,
381.03,1.18E-03,,
381.07,3.50E-03,,
381.11,1.02E-02,,
381.15,2.90E-02,,
381.2,1.04E-01,,
381.24,2.82E-01,,
381.28,7.50E-01,,
381.32,1.95E+00,,
381.37,6.22E+00,,
381.41,1.54E+01,,
381.45,3.72E+01,,
381.49,8.80E+01,,
381.54,2.51E+02,,
381.58,5.65E+02,,
381.62,1.25E+03,,
381.66,2.69E+03,,
381.71,6.81E+03,,
381.75,1.40E+04,,
381.79,2.81E+04,,
381.83,5.53E+04,,
381.88,1.25E+05,,
381.92,2.34E+05,,
381.96,4.28E+05,,
382,7.67E+05,,
382.05,1.54E+06,,
382.09,2.63E+06,,
382.13,4.39E+06,,
382.17,7.17E+06,,
382.22,1.29E+07,,
382.26,2.00E+07,,
382.3,3.04E+07,,
382.34,4.53E+07,,
382.39,7.22E+07,,
382.43,1.02E+08,,
382.47,1.42E+08,,
382.51,1.93E+08,,
382.56,2.74E+08,,
382.6,3.54E+08,,
382.64,4.47E+08,,
382.68,5.53E+08,,
382.73,6.99E+08,,
382.77,8.24E+08,,
382.81,9.49E+08,,
382.85,1.07E+09,,
382.9,1.21E+09,,
382.94,1.29E+09,,
382.98,1.36E+09,,
383.02,1.40E+09,,
383.07,1.40E+09,,
383.11,1.37E+09,,
383.15,1.31E+09,,
383.19,1.23E+09,,
383.24,1.10E+09,,
383.28,9.80E+08,,
383.32,8.55E+08,,
383.36,7.30E+08,,
383.41,5.81E+08,,
383.45,4.72E+08,,
383.49,3.76E+08,,
383.53,2.92E+08,,
383.58,2.07E+08,,
383.62,1.54E+08,,
383.66,1.11E+08,,
383.7,7.89E+07,,
383.75,4.98E+07,,
383.79,3.37E+07,,
383.83,2.22E+07,,
383.87,1.44E+07,,
383.92,8.08E+06,,
383.96,4.97E+06,,
384,3.00E+06,,
384.05,1.54E+06,,
384.09,8.84E+05,,
384.13,4.96E+05,,
384.17,2.72E+05,,
384.22,1.25E+05,,
384.26,6.52E+04,,
384.3,3.33E+04,,
384.34,1.67E+04,,
384.39,6.81E+03,,
384.43,3.24E+03,,
384.47,1.51E+03,,
384.51,6.90E+02,,
384.56,2.51E+02,,
384.6,1.09E+02,,
384.64,4.72E+01,,
384.68,2.15E+01,,
384.73,1.29E+01,,
384.77,1.78E+01,,
384.81,3.52E+01,,
384.85,7.53E+01,,
384.9,1.94E+02,,
384.94,4.03E+02,,
384.98,8.22E+02,,
385.02,1.64E+03,,
385.07,3.78E+03,,
385.11,7.20E+03,,
385.15,1.34E+04,,
385.19,2.44E+04,,
385.24,5.02E+04,,
385.28,8.73E+04,,
385.32,1.48E+05,,
385.36,2.47E+05,,
385.41,4.53E+05,,
385.45,7.18E+05,,
385.49,1.11E+06,,
385.53,1.69E+06,,
385.58,2.77E+06,,
385.62,4.01E+06,,
385.66,5.68E+06,,
385.7,7.88E+06,,
385.75,1.15E+07,,
385.79,1.52E+07,,
385.83,1.97E+07,,
385.87,2.49E+07,,
385.92,3.25E+07,,
385.96,3.92E+07,,
386,4.62E+07,,
386.04,5.34E+07,,
386.09,6.21E+07,,
386.13,6.84E+07,,
386.17,7.38E+07,,
386.21,7.78E+07,,
386.26,8.08E+07,,
386.3,8.12E+07,,
386.34,7.99E+07,,
386.38,7.69E+07,,
386.43,7.12E+07,,
386.47,6.54E+07,,
386.51,5.87E+07,,
386.55,5.16E+07,,
386.6,4.27E+07,,
386.64,3.57E+07,,
386.68,2.93E+07,,
386.72,2.35E+07,,
386.77,1.73E+07,,
386.81,1.33E+07,,
386.85,9.93E+06,,
386.89,7.28E+06,,
386.94,4.79E+06,,
386.98,3.34E+06,,
387.02,2.28E+06,,
387.06,1.53E+06,,
387.11,8.97E+05,,
387.15,5.72E+05,,
387.19,3.57E+05,,
387.23,2.18E+05,,
387.28,1.14E+05,,
387.32,6.64E+04,,
387.36,3.78E+04,,
387.4,2.11E+04,,
387.45,9.85E+03,,
387.49,5.23E+03,,
387.53,2.72E+03,,
387.57,1.38E+03,,
387.62,5.78E+02,,
387.66,2.82E+02,,
387.7,1.37E+02,,
387.74,7.04E+01,,
387.79,4.64E+01,,
387.83,6.10E+01,,
387.87,1.13E+02,,
387.91,2.27E+02,,
387.96,5.49E+02,,
388,1.09E+03,,
388.04,2.13E+03,,
388.08,4.09E+03,,
388.13,8.98E+03,,
388.17,1.65E+04,,
388.21,2.98E+04,,
388.25,5.29E+04,,
388.3,1.06E+05,,
388.34,1.80E+05,,
388.38,3.03E+05,,
388.42,5.03E+05,,
388.47,9.25E+05,,
388.51,1.48E+06,,
388.55,2.35E+06,,
388.59,3.67E+06,,
388.64,6.30E+06,,
388.68,9.56E+06,,
388.72,1.43E+07,,
388.76,2.12E+07,,
388.81,3.40E+07,,
388.85,4.88E+07,,
388.89,6.90E+07,,
388.93,9.62E+07,,
388.98,1.43E+08,,
389.02,1.92E+08,,
389.06,2.54E+08,,
389.1,3.30E+08,,
389.15,4.47E+08,,
389.19,5.58E+08,,
389.23,6.84E+08,,
389.27,8.23E+08,,
389.32,1.01E+09,,
389.36,1.16E+09,,
389.4,1.31E+09,,
389.44,1.45E+09,,
389.49,1.60E+09,,
389.53,1.69E+09,,
389.57,1.74E+09,,
389.61,1.77E+09,,
389.66,1.75E+09,,
389.7,1.70E+09,,
389.74,1.62E+09,,
389.78,1.51E+09,,
389.83,1.36E+09,,
389.87,1.23E+09,,
389.91,1.10E+09,,
389.95,9.92E+08,,
390,8.87E+08,,
390.04,8.38E+08,,
390.08,8.26E+08,,
390.12,8.54E+08,,
390.17,9.50E+08,,
390.21,1.07E+09,,
390.25,1.23E+09,,
390.29,1.43E+09,,
390.34,1.70E+09,,
390.38,1.93E+09,,
390.42,2.16E+09,,
390.46,2.37E+09,,
390.51,2.60E+09,,
390.55,2.74E+09,,
390.59,2.82E+09,,
390.63,2.85E+09,,
390.68,2.80E+09,,
390.72,2.70E+09,,
390.76,2.55E+09,,
390.81,2.30E+09,,
390.85,2.07E+09,,
390.89,1.83E+09,,
390.93,1.58E+09,,
390.98,1.28E+09,,
391.02,1.05E+09,,
391.06,8.47E+08,,
391.1,6.69E+08,,
391.15,4.84E+08,,
391.19,3.65E+08,,
391.23,2.69E+08,,
391.27,1.94E+08,,
391.32,1.26E+08,,
391.36,8.66E+07,,
391.4,5.85E+07,,
391.44,3.86E+07,,
391.49,2.24E+07,,
391.53,1.41E+07,,
391.57,8.70E+06,,
391.61,5.26E+06,,
391.66,2.72E+06,,
391.7,1.57E+06,,
391.74,8.86E+05,,
391.78,4.90E+05,,
391.83,2.27E+05,,
391.87,1.20E+05,,
391.91,6.18E+04,,
391.95,3.13E+04,,
392,1.30E+04,,
392.04,6.25E+03,,
392.08,2.95E+03,,
392.12,1.37E+03,,
392.17,5.12E+02,,
392.21,2.36E+02,,
392.25,1.24E+02,,
392.29,9.71E+01,,
392.34,1.51E+02,,
392.38,2.80E+02,,
392.42,5.39E+02,,
392.46,1.03E+03,,
392.51,2.25E+03,,
392.55,4.12E+03,,
392.59,7.38E+03,,
392.63,1.30E+04,,
392.68,2.54E+04,,
392.72,4.26E+04,,
392.76,6.99E+04,,
392.8,1.12E+05,,
392.85,1.98E+05,,
392.89,3.03E+05,,
392.93,4.56E+05,,
392.97,6.72E+05,,
393.02,1.06E+06,,
393.06,1.49E+06,,
393.1,2.05E+06,,
393.14,2.77E+06,,
393.19,3.91E+06,,
393.23,5.03E+06,,
393.27,6.34E+06,,
393.31,7.84E+06,,
393.36,9.92E+06,,
393.4,1.17E+07,,
393.44,1.35E+07,,
393.48,1.53E+07,,
393.53,1.74E+07,,
393.57,1.88E+07,,
393.61,1.99E+07,,
393.65,2.06E+07,,
393.7,2.09E+07,,
393.74,2.07E+07,,
393.78,2.01E+07,,
393.82,1.91E+07,,
393.87,1.74E+07,,
393.91,1.57E+07,,
393.95,1.40E+07,,
393.99,1.22E+07,,
394.04,9.92E+06,,
394.08,8.24E+06,,
394.12,6.70E+06,,
394.16,5.34E+06,,
394.21,3.91E+06,,
394.25,2.97E+06,,
394.29,2.21E+06,,
394.33,1.62E+06,,
394.38,1.06E+06,,
394.42,7.38E+05,,
394.46,5.04E+05,,
394.5,3.37E+05,,
394.55,1.98E+05,,
394.59,1.26E+05,,
394.63,7.89E+04,,
394.67,4.83E+04,,
394.72,2.54E+04,,
394.76,1.49E+04,,
394.8,8.51E+03,,
394.84,4.78E+03,,
394.89,2.25E+03,,
394.93,1.21E+03,,
394.97,6.33E+02,,
395.01,3.25E+02,,
395.06,1.37E+02,,
