Wavelength,Spectra
271.68,1.45E-31
271.72,8.30E-31
271.76,4.54E-30
271.8,2.38E-29
271.85,1.78E-28
271.89,8.46E-28
271.93,3.86E-27
271.97,1.69E-26
272.02,1.00E-25
272.06,3.98E-25
272.1,1.51E-24
272.14,5.51E-24
272.19,2.61E-23
272.23,8.64E-23
272.27,2.74E-22
272.31,8.31E-22
272.36,3.14E-21
272.4,8.65E-21
272.44,2.29E-20
272.48,5.79E-20
272.53,1.74E-19
272.57,4.00E-19
272.61,8.81E-19
272.65,1.86E-18
272.7,4.45E-18
272.74,8.53E-18
272.78,1.57E-17
272.82,2.76E-17
272.87,5.26E-17
272.91,8.40E-17
272.95,1.29E-16
272.99,1.89E-16
273.04,2.87E-16
273.08,3.82E-16
273.12,4.87E-16
273.16,5.95E-16
273.21,7.21E-16
273.25,8.00E-16
273.29,8.51E-16
273.33,8.68E-16
273.38,8.37E-16
273.42,7.74E-16
273.46,6.87E-16
273.5,5.84E-16
273.55,4.48E-16
273.59,3.46E-16
273.63,2.56E-16
273.67,1.81E-16
273.72,1.11E-16
273.76,7.13E-17
273.8,4.39E-17
273.84,2.59E-17
273.89,1.26E-17
273.93,6.78E-18
273.97,3.48E-18
274.01,1.71E-18
274.06,6.65E-19
274.1,2.97E-19
274.14,1.27E-19
274.18,5.23E-20
274.23,1.62E-20
274.27,6.02E-21
274.31,2.15E-21
274.35,7.36E-22
274.4,1.81E-22
274.44,5.63E-23
274.48,1.68E-23
274.52,4.78E-24
274.57,9.37E-25
274.61,2.43E-25
274.65,6.02E-26
274.69,1.43E-26
274.74,6.57E-15
274.78,3.58E-14
274.82,1.88E-13
274.86,9.41E-13
274.91,6.66E-12
274.95,3.04E-11
274.99,1.33E-10
275.03,5.59E-10
275.08,3.17E-09
275.12,1.21E-08
275.16,4.44E-08
275.2,1.56E-07
275.25,7.07E-07
275.29,2.26E-06
275.33,6.93E-06
275.37,2.04E-05
275.42,7.40E-05
275.46,1.98E-04
275.5,5.09E-04
275.54,1.25E-03
275.59,3.64E-03
275.63,8.15E-03
275.67,1.75E-02
275.71,3.61E-02
275.76,8.39E-02
275.8,1.57E-01
275.84,2.83E-01
275.88,4.87E-01
275.93,9.08E-01
275.97,1.42E+00
276.01,2.14E+00
276.05,3.09E+00
276.1,4.61E+00
276.14,6.05E+00
276.18,7.62E+00
276.23,9.58E+00
276.27,1.10E+01
276.31,1.21E+01
276.35,1.27E+01
276.4,1.28E+01
276.44,1.23E+01
276.48,1.13E+01
276.52,9.95E+00
276.57,8.02E+00
276.61,6.43E+00
276.65,4.95E+00
276.69,3.66E+00
276.74,2.36E+00
276.78,1.58E+00
276.82,1.02E+00
276.86,6.30E-01
276.91,3.25E-01
276.95,1.83E-01
276.99,9.86E-02
277.03,5.09E-02
277.08,2.11E-02
277.12,9.90E-03
277.16,4.47E-03
277.2,1.93E-03
277.25,6.40E-04
277.29,2.52E-04
277.33,9.51E-05
277.37,3.44E-05
277.42,9.12E-06
277.46,3.00E-06
277.5,9.49E-07
277.54,2.88E-07
277.59,6.10E-08
277.63,1.68E-08
277.67,4.45E-09
277.71,1.13E-09
277.76,1.91E-10
277.8,4.42E-11
277.84,9.77E-12
277.88,2.07E-12
277.93,2.82E-13
277.97,5.44E-14
278.01,1.01E-14
278.05,1.79E-15
281.2,4.59E-15
281.24,2.49E-14
281.28,1.29E-13
281.33,9.61E-13
281.37,4.57E-12
281.41,2.09E-11
281.45,9.16E-11
281.5,5.50E-10
281.54,2.21E-09
281.58,8.51E-09
281.62,3.15E-08
281.67,1.53E-07
281.71,5.18E-07
281.75,1.69E-06
281.79,5.27E-06
281.84,2.07E-05
281.88,5.91E-05
281.92,1.62E-04
281.96,4.28E-04
282.01,1.36E-03
282.05,3.28E-03
282.09,7.58E-03
282.13,1.69E-02
282.18,4.33E-02
282.22,8.81E-02
282.26,1.72E-01
282.3,3.23E-01
282.35,6.71E-01
282.39,1.15E+00
282.43,1.90E+00
282.47,3.01E+00
282.52,5.05E+00
282.56,7.31E+00
282.6,1.02E+01
282.64,1.36E+01
282.69,1.84E+01
282.73,2.25E+01
282.77,2.64E+01
282.81,2.98E+01
282.86,3.27E+01
282.9,3.37E+01
282.94,3.34E+01
282.99,3.12E+01
283.03,2.82E+01
283.07,2.45E+01
283.11,2.05E+01
283.16,1.55E+01
283.2,1.18E+01
283.24,8.66E+00
283.28,6.10E+00
283.33,3.73E+00
283.37,2.40E+00
283.41,1.49E+00
283.45,8.83E-01
283.5,4.36E-01
283.54,2.37E-01
283.58,1.24E-01
283.62,6.21E-02
283.67,2.48E-02
283.71,1.14E-02
283.75,5.01E-03
283.79,2.12E-03
283.84,6.84E-04
283.88,2.65E-04
283.92,9.84E-05
283.96,3.52E-05
284.01,9.18E-06
284.05,3.00E-06
284.09,9.40E-07
284.13,2.83E-07
284.18,5.98E-08
284.22,1.65E-08
284.26,4.36E-09
284.3,1.11E-09
284.35,1.89E-10
284.39,4.39E-11
284.43,9.81E-12
284.47,2.11E-12
284.52,2.91E-13
284.56,5.70E-14
284.6,1.07E-14
292.72,5.53E-15
292.76,2.83E-14
292.81,2.07E-13
292.85,9.74E-13
292.89,4.42E-12
292.93,1.93E-11
292.98,1.16E-10
293.02,4.68E-10
293.06,1.81E-09
293.1,6.79E-09
293.15,3.35E-08
293.19,1.15E-07
293.23,3.82E-07
293.27,1.22E-06
293.32,4.96E-06
293.36,1.46E-05
293.4,4.14E-05
293.44,1.13E-04
293.49,3.77E-04
293.53,9.49E-04
293.57,2.30E-03
293.61,5.38E-03
293.66,1.47E-02
293.7,3.17E-02
293.74,6.57E-02
293.78,1.31E-01
293.83,2.96E-01
293.87,5.44E-01
293.91,9.63E-01
293.95,1.64E+00
294,3.05E+00
294.04,4.79E+00
294.08,7.25E+00
294.12,1.06E+01
294.17,1.61E+01
294.21,2.17E+01
294.25,2.80E+01
294.29,3.50E+01
294.34,4.38E+01
294.38,5.03E+01
294.42,5.57E+01
294.46,5.94E+01
294.51,6.11E+01
294.55,6.00E+01
294.59,5.68E+01
294.63,5.18E+01
294.68,4.38E+01
294.72,3.68E+01
294.76,2.97E+01
294.8,2.32E+01
294.85,1.61E+01
294.89,1.16E+01
294.93,8.00E+00
294.97,5.33E+00
295.02,3.05E+00
295.06,1.87E+00
295.1,1.10E+00
295.14,6.29E-01
295.19,2.96E-01
295.23,1.55E-01
295.27,7.84E-02
295.31,3.82E-02
295.36,1.47E-02
295.4,6.61E-03
295.44,2.85E-03
295.48,1.19E-03
295.53,3.77E-04
295.57,1.45E-04
295.61,5.34E-05
295.65,1.90E-05
295.7,4.96E-06
295.74,1.63E-06
295.78,5.13E-07
295.82,1.56E-07
295.87,3.35E-08
295.91,9.38E-09
295.95,2.53E-09
295.99,6.59E-10
296.04,1.16E-10
296.08,2.78E-11
296.12,6.42E-12
296.16,1.43E-12
296.21,2.07E-13
296.25,4.23E-14
296.29,8.35E-15
316.87,5.31E-14
316.91,2.33E-13
316.96,1.42E-12
317,5.81E-12
317.04,2.30E-11
317.08,8.85E-11
317.13,4.56E-10
317.17,1.63E-09
317.21,5.66E-09
317.25,1.90E-08
317.3,8.28E-08
317.34,2.59E-07
317.38,7.87E-07
317.42,2.31E-06
317.47,8.52E-06
317.51,2.34E-05
317.55,6.20E-05
317.59,1.59E-04
317.64,4.97E-04
317.68,1.19E-03
317.72,2.76E-03
317.76,6.22E-03
317.81,1.64E-02
317.85,3.44E-02
317.89,6.98E-02
317.93,1.37E-01
317.98,3.06E-01
318.02,5.62E-01
318.06,9.98E-01
318.1,1.72E+00
318.15,3.24E+00
318.19,5.20E+00
318.23,8.07E+00
318.27,1.22E+01
318.32,1.94E+01
318.36,2.72E+01
318.4,3.70E+01
318.44,4.87E+01
318.49,6.58E+01
318.53,8.08E+01
318.57,9.60E+01
318.61,1.11E+02
318.66,1.26E+02
318.7,1.36E+02
318.74,1.41E+02
318.78,1.42E+02
318.83,1.37E+02
318.87,1.29E+02
318.91,1.17E+02
318.95,1.04E+02
319,8.46E+01
319.04,6.95E+01
319.08,5.53E+01
319.12,4.26E+01
319.17,2.95E+01
319.21,2.12E+01
319.25,1.48E+01
319.29,9.95E+00
319.34,5.82E+00
319.38,3.66E+00
319.42,2.23E+00
319.46,1.31E+00
319.51,6.50E-01
319.55,3.57E-01
319.59,1.90E-01
319.63,9.83E-02
319.68,4.11E-02
319.72,1.98E-02
319.76,9.22E-03
319.8,4.16E-03
319.85,1.47E-03
319.89,6.20E-04
319.93,2.53E-04
319.97,9.98E-05
320.02,2.99E-05
320.06,1.10E-05
320.1,3.92E-06
320.14,1.36E-06
320.19,3.43E-07
320.23,1.11E-07
320.27,3.45E-08
320.31,1.04E-08
320.36,2.23E-09
320.4,6.28E-10
320.44,1.71E-10
320.48,4.53E-11
320.53,8.22E-12
320.57,2.03E-12
320.61,4.84E-13
320.65,1.13E-13
320.7,1.77E-14
320.74,4.13E-16
320.78,2.91E-16
320.82,1.99E-16
320.87,1.18E-16
320.91,7.53E-17
320.95,4.65E-17
320.99,2.78E-17
321.04,1.40E-17
321.08,7.82E-18
321.12,4.23E-18
321.16,2.22E-18
321.21,9.48E-19
321.25,4.63E-19
321.29,2.20E-19
321.33,1.01E-19
321.38,3.65E-20
321.42,1.56E-20
321.46,6.49E-21
321.5,2.61E-21
321.55,8.00E-22
321.59,3.00E-22
321.63,1.09E-22
321.67,3.85E-23
321.72,1.00E-23
321.76,3.29E-24
321.8,1.05E-24
321.84,3.23E-25
321.89,7.12E-26
321.93,2.05E-26
321.97,5.72E-27
322.01,1.55E-27
322.06,2.89E-28
322.1,7.29E-29
322.14,1.78E-29
322.18,4.22E-30
322.23,6.68E-31
342.68,1.54E-15
342.72,6.15E-15
342.76,2.39E-14
342.8,9.08E-14
342.85,4.62E-13
342.89,1.65E-12
342.93,5.73E-12
342.97,1.94E-11
343.02,8.55E-11
343.06,2.72E-10
343.1,8.43E-10
343.14,2.54E-09
343.19,9.73E-09
343.23,2.76E-08
343.27,7.63E-08
343.31,2.05E-07
343.36,6.81E-07
343.4,1.72E-06
343.44,4.25E-06
343.48,1.02E-05
343.53,2.93E-05
343.57,6.61E-05
343.61,1.45E-04
343.66,3.74E-04
343.7,7.75E-04
343.74,1.56E-03
343.78,3.06E-03
343.83,6.83E-03
343.87,1.26E-02
343.91,2.26E-02
343.95,3.96E-02
344,7.66E-02
344.04,1.26E-01
344.08,2.02E-01
344.12,3.15E-01
344.17,5.28E-01
344.21,7.75E-01
344.25,1.11E+00
344.29,1.54E+00
344.34,2.24E+00
344.38,2.93E+00
344.42,3.73E+00
344.46,4.63E+00
344.51,5.84E+00
344.55,6.81E+00
344.59,7.74E+00
344.63,8.57E+00
344.68,9.36E+00
344.72,9.74E+00
344.76,9.88E+00
344.8,9.74E+00
344.85,9.22E+00
344.89,8.57E+00
344.93,7.74E+00
344.97,6.81E+00
345.02,5.59E+00
345.06,4.63E+00
345.1,3.73E+00
345.14,2.93E+00
345.19,2.08E+00
345.23,1.54E+00
345.27,1.11E+00
345.31,7.75E-01
345.36,4.78E-01
345.4,3.15E-01
345.44,2.02E-01
345.48,1.26E-01
345.53,6.73E-02
345.57,3.96E-02
345.61,2.26E-02
345.65,1.26E-02
345.7,5.83E-03
345.74,3.06E-03
345.78,1.56E-03
345.82,7.75E-04
345.87,3.11E-04
345.91,1.45E-04
345.95,6.61E-05
345.99,2.93E-05
346.04,1.02E-05
346.08,4.25E-06
346.12,1.72E-06
346.16,6.81E-07
346.21,2.05E-07
346.25,7.63E-08
346.29,2.76E-08
346.33,9.73E-09
346.38,2.54E-09
346.42,8.43E-10
346.46,2.72E-10
346.5,8.55E-11
346.55,1.94E-11
346.59,5.73E-12
346.63,1.65E-12
346.67,4.62E-13
346.72,9.08E-14
346.76,2.39E-14
346.8,6.15E-15
346.84,1.54E-15
356.58,5.32E-15
356.62,2.00E-14
356.66,7.33E-14
356.71,3.59E-13
356.75,1.25E-12
356.79,4.21E-12
356.83,1.39E-11
356.88,5.96E-11
356.92,1.86E-10
356.96,5.66E-10
357.01,2.20E-09
357.05,6.32E-09
357.09,1.77E-08
357.13,4.86E-08
357.18,1.65E-07
357.22,4.27E-07
357.26,1.08E-06
357.3,2.66E-06
357.35,7.92E-06
357.39,1.85E-05
357.43,4.19E-05
357.47,9.29E-05
357.52,2.43E-04
357.56,5.08E-04
357.6,1.04E-03
357.64,2.07E-03
357.69,4.74E-03
357.73,8.93E-03
357.77,1.64E-02
357.81,2.95E-02
357.86,5.91E-02
357.9,1.00E-01
357.94,1.66E-01
357.98,2.68E-01
358.03,4.70E-01
358.07,7.17E-01
358.11,1.07E+00
358.15,1.55E+00
358.2,2.39E+00
358.24,3.28E+00
358.28,4.39E+00
358.32,5.74E+00
358.37,7.74E+00
358.41,9.56E+00
358.45,1.15E+01
358.49,1.35E+01
358.54,1.60E+01
358.58,1.78E+01
358.62,1.93E+01
358.66,2.04E+01
358.71,2.11E+01
358.75,2.11E+01
358.79,2.06E+01
358.83,1.96E+01
358.88,1.78E+01
358.92,1.60E+01
358.96,1.40E+01
359,1.20E+01
359.05,9.56E+00
359.09,7.74E+00
359.13,6.11E+00
359.17,4.70E+00
359.22,3.28E+00
359.26,2.39E+00
359.3,1.70E+00
359.34,1.18E+00
359.39,7.17E-01
359.43,4.70E-01
359.47,3.00E-01
359.51,1.87E-01
359.56,1.00E-01
359.6,5.91E-02
359.64,3.40E-02
359.68,1.91E-02
359.73,8.93E-03
359.77,4.74E-03
359.81,2.45E-03
359.85,1.24E-03
359.9,5.10E-04
359.94,2.46E-04
359.98,1.21E-04
360.02,7.02E-05
360.07,7.04E-05
360.11,1.21E-04
360.15,2.43E-04
360.19,4.99E-04
360.24,1.20E-03
360.28,2.35E-03
360.32,4.49E-03
360.36,8.39E-03
360.41,1.77E-02
360.45,3.13E-02
360.49,5.40E-02
360.53,9.09E-02
360.58,1.68E-01
360.62,2.68E-01
360.66,4.17E-01
360.7,6.32E-01
360.75,1.03E+00
360.79,1.48E+00
360.83,2.07E+00
360.87,2.83E+00
360.92,4.03E+00
360.96,5.22E+00
361,6.59E+00
361.04,8.11E+00
361.09,1.02E+01
361.13,1.19E+01
361.17,1.35E+01
361.21,1.50E+01
361.26,1.65E+01
361.3,1.73E+01
361.34,1.77E+01
361.38,1.77E+01
361.43,1.71E+01
361.47,1.62E+01
361.51,1.50E+01
361.55,1.35E+01
361.6,1.14E+01
361.64,9.75E+00
361.68,8.11E+00
361.72,6.59E+00
361.77,4.90E+00
361.81,3.77E+00
361.85,2.83E+00
361.89,2.07E+00
361.94,1.35E+00
361.98,9.36E-01
362.02,6.32E-01
362.06,4.17E-01
362.11,2.39E-01
362.15,1.49E-01
362.19,9.12E-02
362.23,5.47E-02
362.28,2.89E-02
362.32,1.86E-02
362.36,1.47E-02
362.4,1.63E-02
362.45,2.70E-02
362.49,4.55E-02
362.53,7.77E-02
362.57,1.31E-01
362.62,2.44E-01
362.66,3.92E-01
362.7,6.13E-01
362.74,9.37E-01
362.79,1.54E+00
362.83,2.23E+00
362.87,3.14E+00
362.91,4.33E+00
362.96,6.26E+00
363,8.17E+00
363.04,1.04E+01
363.08,1.29E+01
363.13,1.64E+01
363.17,1.94E+01
363.21,2.22E+01
363.25,2.50E+01
363.3,2.79E+01
363.34,2.96E+01
363.38,3.07E+01
363.42,3.11E+01
363.47,3.05E+01
363.51,2.92E+01
363.55,2.73E+01
363.59,2.50E+01
363.64,2.15E+01
363.68,1.86E+01
363.72,1.57E+01
363.77,1.23E+01
363.81,9.82E+00
363.85,7.66E+00
363.89,5.83E+00
363.94,4.01E+00
363.98,2.89E+00
364.02,2.03E+00
364.06,1.40E+00
364.11,8.45E-01
364.15,5.49E-01
364.19,3.49E-01
364.23,2.16E-01
364.28,1.15E-01
364.32,6.74E-02
364.36,3.86E-02
364.4,2.16E-02
364.45,1.01E-02
364.49,5.34E-03
364.53,2.76E-03
364.57,1.39E-03
364.62,5.72E-04
364.66,2.73E-04
364.7,1.27E-04
364.74,5.79E-05
364.79,2.09E-05
364.83,9.01E-06
364.87,3.79E-06
364.91,1.56E-06
364.96,4.94E-07
365,1.92E-07
365.04,7.29E-08
365.08,2.70E-08
365.13,7.54E-09
365.17,2.64E-09
365.21,9.04E-10
365.25,3.02E-10
365.3,7.42E-11
365.34,2.35E-11
365.38,7.25E-12
365.42,2.18E-12
365.47,4.72E-13
365.51,1.35E-13
365.55,3.75E-14
365.59,1.02E-14
368.27,9.94E-15
368.31,3.61E-14
368.36,1.75E-13
368.4,6.02E-13
368.44,2.02E-12
368.48,6.65E-12
368.53,2.85E-11
368.57,8.87E-11
368.61,2.70E-10
368.65,8.04E-10
368.7,3.04E-09
368.74,8.58E-09
368.78,2.37E-08
368.82,6.38E-08
368.87,2.13E-07
368.91,5.45E-07
368.95,1.36E-06
368.99,3.32E-06
369.04,9.82E-06
369.08,2.27E-05
369.12,5.14E-05
369.16,1.14E-04
369.21,2.97E-04
369.25,6.22E-04
369.29,1.28E-03
369.33,2.55E-03
369.38,5.88E-03
369.42,1.12E-02
369.46,2.07E-02
369.5,3.76E-02
369.55,7.66E-02
369.59,1.32E-01
369.63,2.22E-01
369.67,3.64E-01
369.72,6.55E-01
369.76,1.02E+00
369.8,1.55E+00
369.84,2.31E+00
369.89,3.67E+00
369.93,5.18E+00
369.97,7.15E+00
370.01,9.63E+00
370.06,1.35E+01
370.1,1.73E+01
370.14,2.16E+01
370.18,2.63E+01
370.23,3.27E+01
370.27,3.78E+01
370.31,4.28E+01
370.35,4.73E+01
370.4,5.18E+01
370.44,5.44E+01
370.48,5.57E+01
370.53,5.55E+01
370.57,5.40E+01
370.61,5.13E+01
370.65,4.76E+01
370.7,4.19E+01
370.74,3.69E+01
370.78,3.17E+01
370.82,2.67E+01
370.87,2.08E+01
370.91,1.66E+01
370.95,1.29E+01
370.99,9.81E+00
371.04,6.75E+00
371.08,4.87E+00
371.12,3.44E+00
371.16,2.37E+00
371.21,1.44E+00
371.25,9.42E-01
371.29,6.02E-01
371.33,3.76E-01
371.38,2.02E-01
371.42,1.20E-01
371.46,6.92E-02
371.5,3.91E-02
371.55,1.86E-02
371.59,9.96E-03
371.63,5.22E-03
371.67,2.67E-03
371.72,1.12E-03
371.76,5.44E-04
371.8,2.58E-04
371.84,1.20E-04
371.89,4.44E-05
371.93,1.95E-05
371.97,8.40E-06
372.01,3.53E-06
372.06,1.16E-06
372.1,4.60E-07
372.14,1.79E-07
372.18,6.82E-08
372.23,1.97E-08
372.27,7.12E-09
372.31,2.51E-09
372.35,8.65E-10
372.4,2.21E-10
372.44,7.22E-11
372.48,2.31E-11
372.52,7.20E-12
372.57,1.63E-12
372.61,4.81E-13
372.65,1.39E-13
372.69,3.93E-14
372.74,7.85E-15
379.67,2.64E-14
379.71,9.18E-14
379.75,3.12E-13
379.79,1.04E-12
379.84,4.52E-12
379.88,1.43E-11
379.92,4.43E-11
379.96,1.34E-10
380.01,5.20E-10
380.05,1.50E-09
380.09,4.23E-09
380.13,1.17E-08
380.18,4.03E-08
380.22,1.06E-07
380.26,2.72E-07
380.3,6.83E-07
380.35,2.10E-06
380.39,5.02E-06
380.43,1.18E-05
380.47,2.69E-05
380.52,7.36E-05
380.56,1.60E-04
380.6,3.42E-04
380.64,7.14E-04
380.69,1.74E-03
380.73,3.45E-03
380.77,6.71E-03
380.81,1.28E-02
380.86,2.76E-02
380.9,4.99E-02
380.94,8.84E-02
380.98,1.53E-01
381.03,2.95E-01
381.07,4.86E-01
381.11,7.84E-01
381.15,1.24E+00
381.2,2.12E+00
381.24,3.19E+00
381.28,4.69E+00
381.32,6.74E+00
381.37,1.03E+01
381.41,1.41E+01
381.45,1.88E+01
381.49,2.47E+01
381.54,3.35E+01
381.58,4.18E+01
381.62,5.09E+01
381.66,6.08E+01
381.71,7.35E+01
381.75,8.35E+01
381.79,9.27E+01
381.83,1.01E+02
381.88,1.09E+02
381.92,1.12E+02
381.96,1.14E+02
382,1.13E+02
382.05,1.08E+02
382.09,1.02E+02
382.13,9.37E+01
382.17,8.45E+01
382.22,7.21E+01
382.26,6.19E+01
382.3,5.20E+01
382.34,4.28E+01
382.39,3.24E+01
382.43,2.54E+01
382.47,1.94E+01
382.51,1.46E+01
382.56,9.83E+00
382.6,7.00E+00
382.64,4.88E+00
382.68,3.33E+00
382.73,2.00E+00
382.77,1.30E+00
382.81,8.27E-01
382.85,5.14E-01
382.9,2.75E-01
382.94,1.63E-01
382.98,9.41E-02
383.02,5.33E-02
383.07,2.54E-02
383.11,1.37E-02
383.15,7.22E-03
383.19,3.72E-03
383.24,1.58E-03
383.28,7.75E-04
383.32,3.72E-04
383.36,1.75E-04
383.41,6.61E-05
383.45,2.96E-05
383.49,1.29E-05
383.53,5.54E-06
383.58,1.86E-06
383.62,7.58E-07
383.66,3.02E-07
383.7,1.18E-07
383.75,3.53E-08
383.79,1.31E-08
383.83,4.76E-09
383.87,1.69E-09
383.92,4.50E-10
383.96,1.52E-10
384,5.04E-11
384.05,1.23E-11
384.09,3.86E-12
384.13,1.19E-12
384.17,3.59E-13
384.22,7.78E-14
384.26,2.23E-14
384.85,1.17E-15
384.9,5.44E-15
384.94,1.82E-14
384.98,5.94E-14
385.02,1.90E-13
385.07,7.90E-13
385.11,2.41E-12
385.15,7.20E-12
385.19,2.11E-11
385.24,7.81E-11
385.28,2.18E-10
385.32,5.93E-10
385.36,1.58E-09
385.41,5.24E-09
385.45,1.33E-08
385.49,3.32E-08
385.53,8.10E-08
385.58,2.40E-07
385.62,5.57E-07
385.66,1.27E-06
385.7,2.82E-06
385.75,7.44E-06
385.79,1.58E-05
385.83,3.28E-05
385.87,6.67E-05
385.92,1.57E-04
385.96,3.05E-04
386,5.78E-04
386.04,1.07E-03
386.09,2.26E-03
386.13,4.00E-03
386.17,6.93E-03
386.21,1.18E-02
386.26,2.21E-02
386.3,3.57E-02
386.34,5.65E-02
386.38,8.75E-02
386.43,1.47E-01
386.47,2.17E-01
386.51,3.13E-01
386.55,4.43E-01
386.6,6.63E-01
386.64,8.94E-01
386.68,1.18E+00
386.72,1.52E+00
386.77,2.04E+00
386.81,2.51E+00
386.85,3.02E+00
386.89,3.57E+00
386.94,4.26E+00
386.98,4.79E+00
387.02,5.27E+00
387.06,5.68E+00
387.11,6.05E+00
387.15,6.21E+00
387.19,6.25E+00
387.23,6.15E+00
387.28,5.85E+00
387.32,5.48E+00
387.36,5.04E+00
387.4,4.53E+00
387.45,3.84E+00
387.49,3.29E+00
387.53,2.76E+00
387.57,2.27E+00
387.62,1.73E+00
387.66,1.37E+00
387.7,1.07E+00
387.74,8.53E-01
387.79,6.89E-01
387.83,6.64E-01
387.87,7.57E-01
387.91,1.01E+00
387.96,1.64E+00
388,2.51E+00
388.04,3.84E+00
388.08,5.83E+00
388.13,9.57E+00
388.17,1.39E+01
388.21,1.98E+01
388.25,2.77E+01
388.3,4.07E+01
388.34,5.42E+01
388.38,7.06E+01
388.42,9.01E+01
388.47,1.19E+02
388.51,1.44E+02
388.55,1.72E+02
388.59,2.00E+02
388.64,2.35E+02
388.68,2.62E+02
388.72,2.85E+02
388.76,3.03E+02
388.81,3.19E+02
388.85,3.24E+02
388.89,3.22E+02
388.93,3.14E+02
388.98,2.95E+02
389.02,2.74E+02
389.06,2.49E+02
389.1,2.21E+02
389.15,1.86E+02
389.19,1.58E+02
389.23,1.31E+02
389.27,1.07E+02
389.32,8.00E+01
389.36,6.20E+01
389.4,4.71E+01
389.44,3.50E+01
389.49,2.35E+01
389.53,1.67E+01
389.57,1.16E+01
389.61,7.86E+00
389.66,4.71E+00
389.7,3.05E+00
389.74,1.93E+00
389.78,1.20E+00
389.83,6.43E-01
389.87,3.81E-01
389.91,2.21E-01
389.95,1.25E-01
390,6.00E-02
390.04,3.25E-02
390.08,1.72E-02
390.12,8.93E-03
390.17,3.82E-03
390.21,1.89E-03
390.25,9.15E-04
390.29,4.34E-04
390.34,1.66E-04
390.38,7.50E-05
390.42,3.32E-05
390.46,1.44E-05
390.51,4.92E-06
390.55,2.03E-06
390.59,8.22E-07
390.63,3.26E-07
390.68,9.95E-08
390.72,3.79E-08
390.76,1.47E-08
390.81,6.56E-09
390.85,8.24E-09
390.89,1.78E-08
390.93,4.28E-08
390.98,1.28E-07
391.02,3.02E-07
391.06,6.96E-07
391.1,1.57E-06
391.15,4.22E-06
391.19,9.10E-06
391.23,1.92E-05
391.27,3.97E-05
391.32,9.57E-05
391.36,1.89E-04
391.4,3.65E-04
391.44,6.91E-04
391.49,1.49E-03
391.53,2.69E-03
391.57,4.77E-03
391.61,8.26E-03
391.66,1.60E-02
391.7,2.64E-02
391.74,4.28E-02
391.78,6.79E-02
391.83,1.17E-01
391.87,1.78E-01
391.91,2.64E-01
391.95,3.83E-01
392,5.94E-01
392.04,8.23E-01
392.08,1.12E+00
392.12,1.49E+00
392.17,2.06E+00
392.21,2.62E+00
392.25,3.26E+00
392.29,3.97E+00
392.34,4.93E+00
392.38,5.73E+00
392.42,6.53E+00
392.46,7.28E+00
392.51,8.10E+00
392.55,8.62E+00
392.59,8.98E+00
392.63,9.17E+00
392.68,9.14E+00
392.72,8.91E+00
392.76,8.50E+00
392.8,7.95E+00
392.85,7.10E+00
392.89,6.33E+00
392.93,5.53E+00
392.97,4.73E+00
393.02,3.78E+00
393.06,3.09E+00
393.1,2.47E+00
393.14,1.94E+00
393.19,1.39E+00
393.23,1.04E+00
393.27,7.60E-01
393.31,5.45E-01
393.36,3.50E-01
393.4,2.39E-01
393.44,1.61E-01
393.48,1.06E-01
393.53,6.06E-02
393.57,3.80E-02
393.61,2.33E-02
393.65,1.40E-02
393.7,7.21E-03
393.74,4.14E-03
393.78,2.33E-03
393.82,1.28E-03
