Wavelength,Spectra,,
176.74,3.86E-08,,
176.78,5.78E-07,,
176.82,7.83E-06,,
176.87,1.76E-04,,
176.91,1.90E-03,,
176.95,1.85E-02,,
176.99,1.63E-01,,
177.04,2.15E+00,,
177.08,1.51E+01,,
177.12,9.55E+01,,
177.16,5.47E+02,,
177.21,4.21E+03,,
177.25,1.92E+04,,
177.29,7.92E+04,,
177.33,2.95E+05,,
177.38,1.33E+06,,
177.42,3.93E+06,,
177.46,1.06E+07,,
177.5,2.56E+07,,
177.55,6.71E+07,,
177.59,1.30E+08,,
177.63,2.26E+08,,
177.67,3.56E+08,,
177.72,5.46E+08,,
177.76,6.85E+08,,
177.8,7.78E+08,,
177.84,7.98E+08,,
177.89,7.14E+08,,
177.93,5.83E+08,,
177.97,4.31E+08,,
178.01,2.87E+08,,
178.06,1.50E+08,,
178.1,7.98E+07,,
178.14,3.83E+07,,
178.18,1.66E+07,,
178.23,5.08E+06,,
178.27,1.76E+06,,
178.31,5.48E+05,,
178.35,1.55E+05,,
178.4,2.76E+04,,
178.44,6.21E+03,,
178.48,1.26E+03,,
178.52,2.32E+02,,
178.57,2.41E+01,,
178.61,3.53E+00,,
178.65,4.67E-01,,
178.69,5.57E-02,,
178.74,3.39E-03,,
178.78,3.23E-04,,
178.82,2.77E-05,,
178.86,2.16E-06,,
178.91,7.67E-08,,
184.18,1.82E-07,,
184.22,2.25E-06,,
184.26,2.54E-05,,
184.31,4.61E-04,,
184.35,4.22E-03,,
184.39,3.52E-02,,
184.43,2.67E-01,,
184.48,2.95E+00,,
184.52,1.82E+01,,
184.56,1.02E+02,,
184.6,5.21E+02,,
184.65,3.51E+03,,
184.69,1.46E+04,,
184.73,5.49E+04,,
184.77,1.89E+05,,
184.82,7.76E+05,,
184.86,2.16E+06,,
184.9,5.49E+06,,
184.94,1.27E+07,,
184.99,3.18E+07,,
185.03,5.97E+07,,
185.07,1.02E+08,,
185.11,1.59E+08,,
185.16,2.42E+08,,
185.2,3.06E+08,,
185.24,3.52E+08,,
185.28,3.69E+08,,
185.33,3.43E+08,,
185.37,2.91E+08,,
185.41,2.25E+08,,
185.45,1.59E+08,,
185.5,9.00E+07,,
185.54,5.15E+07,,
185.58,2.68E+07,,
185.62,1.28E+07,,
185.67,4.69E+06,,
185.71,2.78E+06,,
185.75,4.22E+06,,
185.79,1.12E+07,,
185.84,3.85E+07,,
185.88,9.45E+07,,
185.92,2.12E+08,,
185.96,4.33E+08,,
186.01,9.29E+08,,
186.05,1.54E+09,,
186.09,2.34E+09,,
186.13,3.23E+09,,
186.18,4.25E+09,,
186.22,4.76E+09,,
186.26,4.88E+09,,
186.3,4.55E+09,,
186.35,3.67E+09,,
186.39,2.78E+09,,
186.43,1.92E+09,,
186.47,1.22E+09,,
186.52,6.11E+08,,
186.56,3.31E+08,,
186.6,1.88E+08,,
186.64,1.33E+08,,
186.69,1.34E+08,,
186.73,1.59E+08,,
186.77,1.85E+08,,
186.81,2.01E+08,,
186.86,1.98E+08,,
186.9,1.76E+08,,
186.94,1.44E+08,,
186.98,1.07E+08,,
187.03,6.45E+07,,
187.07,3.90E+07,,
187.11,2.15E+07,,
187.15,1.08E+07,,
187.2,4.02E+06,,
187.24,1.64E+06,,
187.28,6.13E+05,,
187.32,2.09E+05,,
187.37,4.78E+04,,
187.41,1.32E+04,,
187.45,3.35E+03,,
187.49,7.72E+02,,
187.54,1.08E+02,,
187.58,2.03E+01,,
187.62,3.48E+00,,
187.66,5.44E-01,,
187.71,4.70E-02,,
187.75,5.97E-03,,
187.79,6.93E-04,,
187.83,7.33E-05,,
187.88,3.89E-06,,
187.92,3.35E-07,,
187.96,2.63E-08,,
193.62,5.03E-08,,
193.66,5.93E-07,,
193.7,6.42E-06,,
193.74,6.39E-05,,
193.79,1.00E-03,,
193.83,8.25E-03,,
193.87,6.25E-02,,
193.91,4.34E-01,,
193.96,4.36E+00,,
194,2.51E+01,,
194.04,1.33E+02,,
194.08,6.44E+02,,
194.13,4.13E+03,,
194.17,1.66E+04,,
194.21,6.13E+04,,
194.25,2.08E+05,,
194.3,8.53E+05,,
194.34,2.40E+06,,
194.38,6.19E+06,,
194.42,1.47E+07,,
194.47,3.84E+07,,
194.51,7.54E+07,,
194.55,1.36E+08,,
194.59,2.26E+08,,
194.64,3.77E+08,,
194.68,5.18E+08,,
194.72,6.53E+08,,
194.76,7.57E+08,,
194.81,8.08E+08,,
194.85,7.75E+08,,
194.89,6.83E+08,,
194.93,5.53E+08,,
194.98,3.77E+08,,
195.02,2.53E+08,,
195.06,1.56E+08,,
195.1,8.81E+07,,
195.15,3.84E+07,,
195.19,1.80E+07,,
195.23,7.74E+06,,
195.27,3.06E+06,,
195.32,8.53E+05,,
195.36,2.79E+05,,
195.4,8.39E+04,,
195.45,1.66E+04,,
195.49,4.13E+03,,
195.53,9.44E+02,,
195.57,1.98E+02,,
195.62,2.51E+01,,
195.66,4.36E+00,,
195.7,6.96E-01,,
195.74,1.02E-01,,
195.79,8.25E-03,,
195.83,1.00E-03,,
195.87,1.12E-04,,
195.91,1.15E-05,,
195.96,5.93E-07,,
196,5.03E-08,,
197.61,2.29E-07,,
197.66,4.36E-06,,
197.7,4.21E-05,,
197.74,3.75E-04,,
197.78,3.07E-03,,
197.83,3.81E-02,,
197.87,2.61E-01,,
197.91,1.65E+00,,
197.95,9.57E+00,,
198,7.72E+01,,
198.04,3.74E+02,,
198.08,1.68E+03,,
198.12,6.91E+03,,
198.17,3.62E+04,,
198.21,1.25E+05,,
198.25,3.95E+05,,
198.29,1.15E+06,,
198.34,3.94E+06,,
198.38,9.60E+06,,
198.42,2.16E+07,,
198.46,4.47E+07,,
198.51,9.92E+07,,
198.55,1.71E+08,,
198.59,2.73E+08,,
198.63,4.01E+08,,
198.68,5.79E+08,,
198.72,7.08E+08,,
198.76,8.00E+08,,
198.8,8.33E+08,,
198.85,7.82E+08,,
198.89,6.79E+08,,
198.93,5.45E+08,,
198.97,4.05E+08,,
199.02,2.56E+08,,
199.06,1.73E+08,,
199.1,1.25E+08,,
199.14,1.10E+08,,
199.19,1.27E+08,,
199.23,1.60E+08,,
199.27,1.98E+08,,
199.31,2.33E+08,,
199.36,2.63E+08,,
199.4,2.73E+08,,
199.44,2.76E+08,,
199.48,2.79E+08,,
199.53,2.96E+08,,
199.57,3.24E+08,,
199.61,3.61E+08,,
199.65,3.97E+08,,
199.7,4.22E+08,,
199.74,4.14E+08,,
199.78,3.78E+08,,
199.82,3.21E+08,,
199.87,2.34E+08,,
199.91,1.66E+08,,
199.95,1.09E+08,,
199.99,6.60E+07,,
200.04,3.15E+07,,
200.08,1.59E+07,,
200.12,7.43E+06,,
200.16,3.20E+06,,
200.21,9.97E+05,,
200.25,3.59E+05,,
200.29,1.19E+05,,
200.33,3.64E+04,,
200.38,7.41E+03,,
200.42,1.90E+03,,
200.46,4.47E+02,,
200.5,9.74E+01,,
200.55,1.29E+01,,
200.59,2.35E+00,,
200.63,3.95E-01,,
200.67,6.12E-02,,
200.72,5.31E-03,,
200.76,6.86E-04,,
200.8,8.19E-05,,
200.84,9.01E-06,,
200.89,5.11E-07,,
200.93,4.70E-08,,
201.06,6.52E-08,,
201.1,6.81E-07,,
201.14,6.58E-06,,
201.18,5.87E-05,,
201.23,8.13E-04,,
201.27,6.09E-03,,
201.31,4.22E-02,,
201.35,2.70E-01,,
201.4,2.47E+00,,
201.44,1.33E+01,,
201.48,6.59E+01,,
201.52,3.03E+02,,
201.57,1.82E+03,,
201.61,7.03E+03,,
201.65,2.51E+04,,
201.69,8.26E+04,,
201.74,3.29E+05,,
201.78,9.08E+05,,
201.82,2.32E+06,,
201.86,5.49E+06,,
201.91,1.44E+07,,
201.95,2.86E+07,,
201.99,5.24E+07,,
202.03,8.88E+07,,
202.08,1.54E+08,,
202.12,2.19E+08,,
202.16,2.88E+08,,
202.21,3.63E+08,,
202.25,4.00E+08,,
202.29,4.08E+08,,
202.33,3.85E+08,,
202.38,3.22E+08,,
202.42,2.57E+08,,
202.46,1.94E+08,,
202.5,1.45E+08,,
202.55,1.14E+08,,
202.59,1.20E+08,,
202.63,1.54E+08,,
202.67,2.15E+08,,
202.72,3.18E+08,,
202.76,4.07E+08,,
202.8,4.85E+08,,
202.84,5.36E+08,,
202.89,5.48E+08,,
202.93,5.15E+08,,
202.97,4.52E+08,,
203.01,3.75E+08,,
203.06,2.79E+08,,
203.1,2.13E+08,,
203.14,1.62E+08,,
203.18,1.24E+08,,
203.23,8.86E+07,,
203.27,6.71E+07,,
203.31,4.93E+07,,
203.35,3.45E+07,,
203.4,2.04E+07,,
203.44,1.24E+07,,
203.48,7.02E+06,,
203.52,3.69E+06,,
203.57,1.48E+06,,
203.61,6.57E+05,,
203.65,2.73E+05,,
203.69,1.18E+05,,
203.74,1.14E+05,,
203.78,3.15E+05,,
203.82,1.01E+06,,
203.86,3.06E+06,,
203.91,1.11E+07,,
203.95,2.83E+07,,
203.99,6.73E+07,,
204.03,1.48E+08,,
204.08,3.58E+08,,
204.12,6.64E+08,,
204.16,1.14E+09,,
204.2,1.82E+09,,
204.25,2.93E+09,,
204.29,3.95E+09,,
204.33,4.92E+09,,
204.37,5.69E+09,,
204.42,6.14E+09,,
204.46,6.00E+09,,
204.5,5.43E+09,,
204.54,4.57E+09,,
204.59,3.31E+09,,
204.63,2.37E+09,,
204.67,1.59E+09,,
204.71,1.04E+09,,
204.76,6.94E+08,,
204.8,6.82E+08,,
204.84,8.99E+08,,
204.88,1.34E+09,,
204.93,2.16E+09,,
204.97,2.96E+09,,
205.01,3.79E+09,,
205.05,4.49E+09,,
205.1,5.00E+09,,
205.14,5.00E+09,,
205.18,4.63E+09,,
205.22,3.98E+09,,
205.27,2.96E+09,,
205.31,2.14E+09,,
205.35,1.44E+09,,
205.39,8.93E+08,,
205.44,4.43E+08,,
205.48,2.32E+08,,
205.52,1.13E+08,,
205.56,5.07E+07,,
205.61,1.68E+07,,
205.65,6.36E+06,,
205.69,2.24E+06,,
205.73,7.28E+05,,
205.78,1.61E+05,,
205.82,4.42E+04,,
205.86,1.12E+04,,
205.9,2.65E+03,,
205.95,3.91E+02,,
205.99,7.76E+01,,
206.03,1.43E+01,,
206.07,2.52E+00,,
206.12,1.04E+00,,
206.16,4.38E+00,,
206.2,2.20E+01,,
206.24,1.04E+02,,
206.29,6.47E+02,,
206.33,2.57E+03,,
206.37,9.50E+03,,
206.41,3.26E+04,,
206.46,1.37E+05,,
206.5,3.96E+05,,
206.54,1.07E+06,,
206.58,2.66E+06,,
206.63,7.50E+06,,
206.67,1.58E+07,,
206.71,3.10E+07,,
206.75,5.63E+07,,
206.8,1.07E+08,,
206.84,1.64E+08,,
206.88,2.34E+08,,
206.92,3.10E+08,,
206.97,3.96E+08,,
207.01,4.43E+08,,
207.05,4.59E+08,,
207.09,4.43E+08,,
207.14,3.80E+08,,
207.18,3.10E+08,,
207.22,2.34E+08,,
207.26,1.64E+08,,
207.31,9.49E+07,,
207.35,5.63E+07,,
207.39,3.10E+07,,
207.43,1.59E+07,,
207.48,6.32E+06,,
207.52,3.14E+06,,
207.56,2.33E+06,,
207.6,3.48E+06,,
207.65,8.53E+06,,
207.69,1.74E+07,,
207.73,3.31E+07,,
207.77,5.86E+07,,
207.82,1.08E+08,,
207.86,1.62E+08,,
207.9,2.27E+08,,
207.94,2.93E+08,,
207.99,3.65E+08,,
208.03,4.01E+08,,
208.07,4.08E+08,,
208.11,3.86E+08,,
208.16,3.25E+08,,
208.2,2.60E+08,,
208.24,1.94E+08,,
208.28,1.34E+08,,
208.33,7.59E+07,,
208.37,4.44E+07,,
208.41,2.42E+07,,
208.45,1.22E+07,,
208.5,4.81E+06,,
208.54,2.37E+06,,
208.58,1.77E+06,,
208.62,2.64E+06,,
208.67,6.42E+06,,
208.71,1.30E+07,,
208.75,2.46E+07,,
208.8,4.94E+07,,
208.84,7.95E+07,,
208.88,1.19E+08,,
208.92,1.65E+08,,
208.97,2.25E+08,,
209.01,2.66E+08,,
209.05,2.91E+08,,
209.09,2.96E+08,,
209.14,2.74E+08,,
209.18,2.36E+08,,
209.22,1.90E+08,,
209.26,1.42E+08,,
209.31,9.11E+07,,
209.35,6.13E+07,,
209.39,4.31E+07,,
209.43,3.62E+07,,
209.48,4.16E+07,,
209.52,5.52E+07,,
209.56,7.45E+07,,
209.6,9.64E+07,,
209.65,1.22E+08,,
209.69,1.36E+08,,
209.73,1.41E+08,,
209.77,1.36E+08,,
209.82,1.17E+08,,
209.86,9.58E+07,,
209.9,7.29E+07,,
209.94,5.16E+07,,
209.99,3.03E+07,,
210.03,1.82E+07,,
210.07,1.02E+07,,
210.11,5.28E+06,,
210.16,2.10E+06,,
210.2,9.28E+05,,
210.24,3.81E+05,,
210.28,1.47E+05,,
210.33,4.92E+04,,
210.37,4.47E+04,,
210.41,9.97E+04,,
210.45,2.68E+05,,
210.5,8.68E+05,,
210.54,2.06E+06,,
210.58,4.54E+06,,
210.62,9.31E+06,,
210.67,2.07E+07,,
210.71,3.61E+07,,
210.75,5.86E+07,,
210.79,8.86E+07,,
210.84,1.35E+08,,
210.88,1.73E+08,,
210.92,2.09E+08,,
210.96,2.34E+08,,
211.01,2.49E+08,,
211.05,2.46E+08,,
211.09,2.35E+08,,
211.13,2.22E+08,,
211.18,2.15E+08,,
211.22,2.21E+08,,
211.26,2.36E+08,,
211.3,2.56E+08,,
211.35,2.75E+08,,
211.39,2.77E+08,,
211.43,2.64E+08,,
211.47,2.36E+08,,
211.52,1.89E+08,,
211.56,1.50E+08,,
211.6,1.16E+08,,
211.64,9.18E+07,,
211.69,7.88E+07,,
211.73,8.04E+07,,
211.77,8.91E+07,,
211.81,1.01E+08,,
211.86,1.12E+08,,
211.9,1.15E+08,,
211.94,1.11E+08,,
211.98,9.96E+07,,
212.03,7.97E+07,,
212.07,6.33E+07,,
212.11,5.16E+07,,
212.15,5.11E+07,,
212.2,8.41E+07,,
212.24,1.63E+08,,
212.28,3.30E+08,,
212.32,6.38E+08,,
212.37,1.34E+09,,
212.41,2.23E+09,,
212.45,3.47E+09,,
212.49,5.03E+09,,
212.54,7.24E+09,,
212.58,8.95E+09,,
212.62,1.03E+10,,
212.66,1.11E+10,,
212.71,1.09E+10,,
212.75,1.00E+10,,
212.79,8.55E+09,,
212.83,6.80E+09,,
212.88,4.63E+09,,
212.92,3.16E+09,,
212.96,2.04E+09,,
213,1.27E+09,,
213.05,7.23E+08,,
213.09,5.21E+08,,
213.13,4.46E+08,,
213.17,4.36E+08,,
213.22,4.48E+08,,
213.26,4.44E+08,,
213.3,4.17E+08,,
213.34,3.68E+08,,
213.39,2.85E+08,,
213.43,2.15E+08,,
213.47,1.51E+08,,
213.51,9.92E+07,,
213.56,5.30E+07,,
213.6,2.97E+07,,
213.64,1.55E+07,,
213.68,7.52E+06,,
213.73,2.77E+06,,
213.77,1.15E+06,,
213.81,4.44E+05,,
213.85,1.60E+05,,
213.9,4.05E+04,,
213.94,1.25E+04,,
213.98,3.57E+03,,
214.02,9.55E+02,,
214.07,1.66E+02,,
214.11,3.79E+01,,
214.15,8.08E+00,,
214.19,1.66E+00,,
214.24,7.39E-01,,
214.28,3.16E+00,,
214.32,1.67E+01,,
214.36,8.32E+01,,
214.41,5.62E+02,,
214.45,2.39E+03,,
214.49,9.53E+03,,
214.53,3.54E+04,,
214.58,1.66E+05,,
214.62,5.26E+05,,
214.66,1.56E+06,,
214.7,4.32E+06,,
214.75,1.40E+07,,
214.79,3.32E+07,,
214.83,7.35E+07,,
214.87,1.52E+08,,
214.92,3.41E+08,,
214.96,6.03E+08,,
215,9.94E+08,,
215.04,1.53E+09,,
215.09,2.38E+09,,
215.13,3.14E+09,,
215.17,3.86E+09,,
215.21,4.44E+09,,
215.26,4.78E+09,,
215.3,4.70E+09,,
215.34,4.31E+09,,
215.38,3.69E+09,,
215.43,2.76E+09,,
215.47,2.02E+09,,
215.51,1.38E+09,,
215.56,7.81E+08,,
215.6,4.57E+08,,
215.64,2.50E+08,,
215.68,1.27E+08,,
215.73,4.98E+07,,
215.77,2.18E+07,,
215.81,8.87E+06,,
215.85,3.37E+06,,
215.9,9.14E+05,,
215.94,2.98E+05,,
215.98,9.04E+04,,
216.02,2.57E+04,,
216.07,4.82E+03,,
216.11,1.17E+03,,
216.15,2.65E+02,,
216.19,5.60E+01,,
216.24,7.29E+00,,
216.28,1.32E+00,,
216.32,2.23E-01,,
216.36,3.52E-02,,
216.41,3.17E-03,,
216.45,4.28E-04,,
216.49,5.39E-05,,
216.53,6.34E-06,,
216.58,4.55E-07,,
216.62,5.22E-07,,
216.66,4.36E-06,,
216.7,3.41E-05,,
216.75,4.05E-04,,
216.79,2.72E-03,,
216.83,1.71E-02,,
216.87,1.00E-01,,
216.92,8.31E-01,,
216.96,4.19E+00,,
217,1.97E+01,,
217.04,8.69E+01,,
217.09,5.05E+02,,
217.13,1.91E+03,,
217.17,6.76E+03,,
217.21,2.24E+04,,
217.26,9.07E+04,,
217.3,2.58E+05,,
217.34,6.85E+05,,
217.38,1.70E+06,,
217.43,4.83E+06,,
217.47,1.03E+07,,
217.51,2.06E+07,,
217.55,3.84E+07,,
217.6,7.60E+07,,
217.64,1.22E+08,,
217.68,1.83E+08,,
217.72,2.56E+08,,
217.77,3.55E+08,,
217.81,4.27E+08,,
217.85,4.80E+08,,
217.89,5.05E+08,,
217.94,4.89E+08,,
217.98,4.42E+08,,
218.02,3.74E+08,,
218.06,2.95E+08,,
218.11,2.00E+08,,
218.15,1.36E+08,,
218.19,8.61E+07,,
218.23,5.11E+07,,
218.28,2.42E+07,,
218.32,1.23E+07,,
218.36,5.87E+06,,
218.4,2.62E+06,,
218.45,8.66E+05,,
218.49,3.31E+05,,
218.53,1.19E+05,,
218.57,3.96E+04,,
218.62,9.17E+03,,
218.66,2.64E+03,,
218.7,7.12E+02,,
218.74,1.95E+02,,
218.79,1.34E+02,,
218.83,4.28E+02,,
218.87,1.58E+03,,
218.91,5.55E+03,,
218.96,2.44E+04,,
219,7.42E+04,,
219.04,2.12E+05,,
219.08,5.69E+05,,
219.13,1.79E+06,,
219.17,4.18E+06,,
219.21,9.19E+06,,
219.25,1.90E+07,,
219.3,4.34E+07,,
219.34,7.85E+07,,
219.38,1.34E+08,,
219.42,2.16E+08,,
219.47,3.61E+08,,
219.51,5.10E+08,,
219.55,6.79E+08,,
219.59,8.54E+08,,
219.64,1.05E+09,,
219.68,1.15E+09,,
219.72,1.20E+09,,
219.76,1.17E+09,,
219.81,1.04E+09,,
219.85,8.87E+08,,
219.89,7.10E+08,,
219.93,5.34E+08,,
219.98,3.44E+08,,
220.02,2.28E+08,,
220.06,1.48E+08,,
220.1,1.01E+08,,
220.15,8.62E+07,,
220.19,1.05E+08,,
220.23,1.49E+08,,
220.27,2.16E+08,,
220.32,3.25E+08,,
220.36,4.22E+08,,
220.4,5.14E+08,,
220.44,5.86E+08,,
220.49,6.30E+08,,
220.53,6.19E+08,,
220.57,5.71E+08,,
220.61,4.92E+08,,
220.66,3.73E+08,,
220.7,2.77E+08,,
220.74,1.93E+08,,
220.78,1.26E+08,,
220.83,6.72E+07,,
220.87,3.78E+07,,
220.91,1.99E+07,,
220.95,9.80E+06,,
221,3.69E+06,,
221.04,1.57E+06,,
221.08,6.24E+05,,
221.12,2.34E+05,,
221.17,7.09E+04,,
221.21,5.01E+04,,
221.25,9.89E+04,,
221.29,2.69E+05,,
221.34,9.14E+05,,
221.38,2.27E+06,,
221.42,5.30E+06,,
221.46,1.16E+07,,
221.51,2.81E+07,,
221.55,5.31E+07,,
221.59,9.43E+07,,
221.63,1.57E+08,,
221.68,2.73E+08,,
221.72,3.95E+08,,
221.76,5.39E+08,,
221.8,6.94E+08,,
221.85,8.78E+08,,
221.89,9.98E+08,,
221.93,1.08E+09,,
221.97,1.11E+09,,
222.02,1.07E+09,,
222.06,1.00E+09,,
222.1,8.96E+08,,
222.14,7.75E+08,,
222.19,6.19E+08,,
222.23,5.04E+08,,
222.27,4.06E+08,,
222.32,3.16E+08,,
222.36,2.67E+08,,
222.4,2.35E+08,,
222.44,2.12E+08,,
222.49,1.90E+08,,
222.53,1.70E+08,,
222.57,1.46E+08,,
222.61,1.20E+08,,
222.66,8.65E+07,,
222.7,6.23E+07,,
222.74,4.21E+07,,
222.78,2.68E+07,,
222.83,1.39E+07,,
222.87,7.62E+06,,
222.91,3.93E+06,,
222.95,1.91E+06,,
223,7.49E+05,,
223.04,4.26E+05,,
223.08,4.48E+05,,
223.12,8.22E+05,,
223.17,2.07E+06,,
223.21,4.16E+06,,
223.25,7.88E+06,,
223.29,1.40E+07,,
223.34,2.63E+07,,
223.38,4.06E+07,,
223.42,5.86E+07,,
223.46,7.95E+07,,
223.51,1.06E+08,,
223.55,1.25E+08,,
223.59,1.39E+08,,
223.63,1.47E+08,,
223.68,1.50E+08,,
223.72,1.55E+08,,
223.76,1.76E+08,,
223.8,2.36E+08,,
223.85,4.17E+08,,
223.89,7.05E+08,,
223.93,1.19E+09,,
223.97,1.92E+09,,
224.02,3.27E+09,,
224.06,4.68E+09,,
224.1,6.31E+09,,
224.14,8.00E+09,,
224.19,9.86E+09,,
224.23,1.09E+10,,
224.27,1.13E+10,,
224.31,1.11E+10,,
224.36,9.93E+09,,
224.4,8.58E+09,,
224.44,7.07E+09,,
224.48,5.59E+09,,
224.53,4.00E+09,,
224.57,2.98E+09,,
224.61,2.20E+09,,
224.65,1.61E+09,,
224.7,1.08E+09,,
224.74,7.70E+08,,
224.78,5.40E+08,,
224.82,3.78E+08,,
224.87,2.54E+08,,
224.91,2.10E+08,,
224.95,2.04E+08,,
224.99,2.26E+08,,
225.04,2.76E+08,,
225.08,3.21E+08,,
225.12,3.57E+08,,
225.16,3.79E+08,,
225.21,3.84E+08,,
225.25,3.73E+08,,
225.29,3.56E+08,,
225.33,3.41E+08,,
225.38,3.38E+08,,
225.42,3.52E+08,,
225.46,3.78E+08,,
225.5,4.14E+08,,
225.55,4.61E+08,,
225.59,4.92E+08,,
225.63,5.12E+08,,
225.67,5.18E+08,,
225.72,5.03E+08,,
225.76,4.74E+08,,
225.8,4.35E+08,,
225.84,3.90E+08,,
225.89,3.34E+08,,
225.93,2.94E+08,,
225.97,2.61E+08,,
226.01,2.33E+08,,
226.06,2.05E+08,,
226.1,1.86E+08,,
226.14,1.68E+08,,
226.18,1.54E+08,,
226.23,1.44E+08,,
226.27,1.45E+08,,
226.31,1.57E+08,,
226.35,1.78E+08,,
226.4,2.10E+08,,
226.44,2.35E+08,,
226.48,2.52E+08,,
226.52,2.58E+08,,
226.57,2.44E+08,,
226.61,2.18E+08,,
226.65,1.83E+08,,
226.69,1.45E+08,,
226.74,9.92E+07,,
226.78,6.82E+07,,
226.82,4.41E+07,,
226.86,2.68E+07,,
226.91,1.33E+07,,
226.95,7.24E+06,,
226.99,4.22E+06,,
227.03,3.45E+06,,
227.08,5.57E+06,,
227.12,1.06E+07,,
227.16,2.02E+07,,
227.2,3.67E+07,,
227.25,7.14E+07,,
227.29,1.14E+08,,
227.33,1.70E+08,,
227.37,2.38E+08,,
227.42,3.34E+08,,
227.46,4.08E+08,,
227.5,4.69E+08,,
227.54,5.07E+08,,
227.59,5.12E+08,,
227.63,4.81E+08,,
227.67,4.25E+08,,
227.71,3.53E+08,,
227.76,2.57E+08,,
227.8,1.86E+08,,
227.84,1.26E+08,,
227.88,8.07E+07,,
227.93,4.22E+07,,
227.97,2.35E+07,,
228.01,1.23E+07,,
228.05,6.03E+06,,
228.1,2.27E+06,,
228.14,9.72E+05,,
228.18,3.91E+05,,
228.22,1.48E+05,,
228.27,4.01E+04,,
228.31,1.32E+04,,
228.35,4.08E+03,,
228.39,1.19E+03,,
228.44,2.32E+02,,
228.48,5.86E+01,,
228.52,1.39E+01,,
228.56,3.12E+00,,
228.61,4.67E-01,,
228.65,2.30E-01,,
228.69,7.15E-01,,
228.73,3.19E+00,,
228.78,1.95E+01,,
228.82,7.74E+01,,
228.86,2.89E+02,,
228.9,1.02E+03,,
228.95,4.51E+03,,
228.99,1.38E+04,,
229.03,4.00E+04,,
229.08,1.38E+05,,
229.12,3.49E+05,,
229.16,8.28E+05,,
229.2,1.85E+06,,
229.25,4.64E+06,,
229.29,9.04E+06,,
229.33,1.66E+07,,
229.37,2.86E+07,,
229.42,5.20E+07,,
229.46,7.84E+07,,
229.5,1.11E+08,,
229.54,1.49E+08,,
229.59,1.98E+08,,
229.63,2.33E+08,,
229.67,2.62E+08,,
229.71,2.80E+08,,
229.76,2.92E+08,,
229.8,2.96E+08,,
229.84,3.01E+08,,
229.88,3.12E+08,,
229.93,3.34E+08,,
229.97,3.58E+08,,
230.01,3.80E+08,,
230.05,3.94E+08,,
230.1,3.90E+08,,
230.14,3.67E+08,,
230.18,3.27E+08,,
230.22,2.75E+08,,
230.27,2.05E+08,,
230.31,1.51E+08,,
230.35,1.05E+08,,
230.39,6.88E+07,,
230.44,3.72E+07,,
230.48,2.13E+07,,
230.52,1.15E+07,,
230.56,5.80E+06,,
230.61,2.28E+06,,
230.65,1.01E+06,,
230.69,4.23E+05,,
230.73,1.77E+05,,
230.78,9.65E+04,,
230.82,1.55E+05,,
230.86,3.73E+05,,
230.9,9.16E+05,,
230.95,2.63E+06,,
230.99,5.71E+06,,
231.03,1.17E+07,,
231.07,2.26E+07,,
231.12,4.72E+07,,
231.16,7.98E+07,,
231.2,1.27E+08,,
231.24,1.91E+08,,
231.29,2.92E+08,,
231.33,3.86E+08,,
231.37,4.81E+08,,
231.41,5.68E+08,,
231.46,6.49E+08,,
231.5,6.83E+08,,
231.54,6.87E+08,,
231.58,6.64E+08,,
231.63,6.04E+08,,
231.67,5.41E+08,,
231.71,4.72E+08,,
231.75,4.02E+08,,
231.8,3.17E+08,,
231.84,2.54E+08,,
231.88,1.97E+08,,
231.92,1.49E+08,,
231.97,1.03E+08,,
232.01,8.05E+07,,
232.05,7.33E+07,,
232.09,8.41E+07,,
232.14,1.27E+08,,
232.18,1.89E+08,,
232.22,2.75E+08,,
232.26,3.84E+08,,
232.31,5.40E+08,,
232.35,6.64E+08,,
232.39,7.70E+08,,
232.43,8.44E+08,,
232.48,8.74E+08,,
232.52,8.46E+08,,
232.56,7.80E+08,,
232.6,6.93E+08,,
232.65,5.83E+08,,
232.69,5.14E+08,,
232.73,4.73E+08,,
232.77,4.62E+08,,
232.82,4.79E+08,,
232.86,5.03E+08,,
232.9,5.21E+08,,
232.94,5.22E+08,,
232.99,4.91E+08,,
233.03,4.40E+08,,
233.07,3.73E+08,,
233.11,2.98E+08,,
233.16,2.08E+08,,
233.2,1.46E+08,,
233.24,9.67E+07,,
233.28,6.03E+07,,
233.33,3.08E+07,,
233.37,1.68E+07,,
233.41,8.66E+06,,
233.45,4.20E+06,,
233.5,1.57E+06,,
233.54,6.67E+05,,
233.58,2.67E+05,,
233.62,1.01E+05,,
233.67,2.76E+04,,
233.71,9.12E+03,,
233.75,2.85E+03,,
233.79,8.37E+02,,
233.84,1.67E+02,,
233.88,4.30E+01,,
233.92,1.04E+01,,
233.96,2.39E+00,,
234.01,3.48E-01,,
234.05,6.98E-02,,
234.09,1.32E-02,,
234.13,2.35E-03,,
