Wavelength,Spectra,,
218.23,1.73E-06,,
218.28,2.60E-05,,
218.32,2.10E-04,,
218.36,1.59E-03,,
218.4,1.13E-02,,
218.45,1.19E-01,,
218.49,7.25E-01,,
218.53,4.14E+00,,
218.57,2.21E+01,,
218.62,1.64E+02,,
218.66,7.54E+02,,
218.7,3.25E+03,,
218.74,1.31E+04,,
218.79,6.82E+04,,
218.83,2.37E+05,,
218.87,7.69E+05,,
218.91,2.34E+06,,
218.96,8.55E+06,,
219,2.24E+07,,
219.04,5.48E+07,,
219.08,1.26E+08,,
219.13,3.23E+08,,
219.17,6.38E+08,,
219.21,1.18E+09,,
219.25,2.04E+09,,
219.3,3.68E+09,,
219.34,5.48E+09,,
219.38,7.64E+09,,
219.42,9.97E+09,,
219.47,1.27E+10,,
219.51,1.42E+10,,
219.55,1.49E+10,,
219.59,1.47E+10,,
219.64,1.31E+10,,
219.68,1.11E+10,,
219.72,8.80E+09,,
219.76,6.53E+09,,
219.81,4.09E+09,,
219.85,2.62E+09,,
219.89,1.56E+09,,
219.93,8.75E+08,,
219.98,3.85E+08,,
220.02,1.86E+08,,
220.06,8.37E+07,,
220.1,3.53E+07,,
220.15,1.09E+07,,
220.19,3.98E+06,,
220.23,1.35E+06,,
220.27,4.30E+05,,
220.32,9.36E+04,,
220.36,2.57E+04,,
220.4,6.58E+03,,
220.44,1.58E+03,,
220.49,2.42E+02,,
220.53,4.99E+01,,
220.57,9.65E+00,,
220.61,1.75E+00,,
220.66,1.88E-01,,
220.7,2.93E-02,,
220.74,4.27E-03,,
220.78,5.83E-04,,
220.83,4.41E-05,,
220.87,5.18E-06,,
259.98,5.87E-05,,
260.03,5.53E-04,,
260.07,3.16E-03,,
260.11,1.72E-02,,
260.15,8.96E-02,,
260.2,6.59E-01,,
260.24,3.09E+00,,
260.28,1.38E+01,,
260.32,5.88E+01,,
260.37,3.37E+02,,
260.41,1.30E+03,,
260.45,4.74E+03,,
260.49,1.66E+04,,
260.54,7.42E+04,,
260.58,2.33E+05,,
260.62,7.00E+05,,
260.66,2.01E+06,,
260.71,7.00E+06,,
260.75,1.81E+07,,
260.79,4.45E+07,,
260.83,1.04E+08,,
260.88,2.84E+08,,
260.92,6.01E+08,,
260.96,1.21E+09,,
261,2.33E+09,,
261.05,4.95E+09,,
261.09,8.58E+09,,
261.13,1.42E+10,,
261.17,2.24E+10,,
261.22,3.71E+10,,
261.26,5.27E+10,,
261.3,7.14E+10,,
261.34,9.23E+10,,
261.39,1.19E+11,,
261.43,1.39E+11,,
261.47,1.54E+11,,
261.51,1.64E+11,,
261.56,1.65E+11,,
261.6,1.57E+11,,
261.64,1.43E+11,,
261.68,1.24E+11,,
261.73,9.77E+10,,
261.77,7.64E+10,,
261.81,5.71E+10,,
261.85,4.06E+10,,
261.9,2.49E+10,,
261.94,1.60E+10,,
261.98,9.77E+09,,
262.02,5.71E+09,,
262.07,2.73E+09,,
262.11,1.43E+09,,
262.15,7.19E+08,,
262.19,3.44E+08,,
262.24,1.28E+08,,
262.28,5.53E+07,,
262.32,2.27E+07,,
262.36,8.91E+06,,
262.41,2.59E+06,,
262.45,9.15E+05,,
262.49,3.08E+05,,
262.53,9.92E+04,,
262.58,2.25E+04,,
262.62,6.51E+03,,
262.66,1.80E+03,,
262.71,3.37E+02,,
262.75,8.39E+01,,
262.79,1.99E+01,,
262.83,4.51E+00,,
262.88,6.59E-01,,
262.92,1.34E-01,,
262.96,2.61E-02,,
263,4.85E-03,,
263.05,5.53E-04,,
263.09,9.24E-05,,
263.13,1.47E-05,,
271.25,1.47E-08,,
271.29,8.40E-08,,
271.34,6.96E-07,,
271.38,3.60E-06,,
271.42,1.79E-05,,
271.46,8.48E-05,,
271.51,5.59E-04,,
271.55,2.41E-03,,
271.59,9.95E-03,,
271.63,3.94E-02,,
271.68,2.07E-01,,
271.72,7.42E-01,,
271.76,2.55E+00,,
271.8,8.41E+00,,
271.85,3.52E+01,,
271.89,1.05E+02,,
271.93,3.01E+02,,
271.97,8.27E+02,,
272.02,2.75E+03,,
272.06,6.86E+03,,
272.1,1.64E+04,,
272.14,3.74E+04,,
272.19,9.91E+04,,
272.23,2.06E+05,,
272.27,4.09E+05,,
272.31,7.79E+05,,
272.36,1.64E+06,,
272.4,2.84E+06,,
272.44,4.71E+06,,
272.48,7.47E+06,,
272.53,1.25E+07,,
272.57,1.80E+07,,
272.61,2.49E+07,,
272.65,3.29E+07,,
272.7,4.40E+07,,
272.74,5.28E+07,,
272.78,6.07E+07,,
272.82,6.68E+07,,
272.87,7.10E+07,,
272.91,7.10E+07,,
272.95,6.80E+07,,
272.99,6.24E+07,,
273.04,5.28E+07,,
273.08,4.40E+07,,
273.12,3.51E+07,,
273.16,2.68E+07,,
273.21,1.80E+07,,
273.25,1.25E+07,,
273.29,8.33E+06,,
273.33,5.30E+06,,
273.38,2.84E+06,,
273.42,1.64E+06,,
273.46,9.09E+05,,
273.5,4.83E+05,,
273.55,2.06E+05,,
273.59,9.91E+04,,
273.63,4.57E+04,,
273.67,2.02E+04,,
273.72,6.86E+03,,
273.76,2.75E+03,,
273.8,1.06E+03,,
273.84,3.89E+02,,
273.89,1.05E+02,,
273.93,3.52E+01,,
273.97,1.13E+01,,
274.01,3.53E+00,,
274.06,1.24E+00,,
274.1,2.24E+00,,
274.14,8.06E+00,,
274.18,3.03E+01,,
274.23,1.50E+02,,
274.27,5.16E+02,,
274.31,1.70E+03,,
274.35,5.36E+03,,
274.4,2.13E+04,,
274.44,6.10E+04,,
274.48,1.68E+05,,
274.52,4.43E+05,,
274.57,1.40E+06,,
274.61,3.37E+06,,
274.65,7.75E+06,,
274.69,1.71E+07,,
274.74,4.33E+07,,
274.78,8.69E+07,,
274.82,1.67E+08,,
274.86,3.08E+08,,
274.91,6.24E+08,,
274.95,1.05E+09,,
274.99,1.68E+09,,
275.03,2.59E+09,,
275.08,4.19E+09,,
275.12,5.87E+09,,
275.16,7.89E+09,,
275.2,1.02E+10,,
275.25,1.31E+10,,
275.29,1.54E+10,,
275.33,1.73E+10,,
275.37,1.86E+10,,
275.42,1.92E+10,,
275.46,1.88E+10,,
275.5,1.77E+10,,
275.54,1.59E+10,,
275.59,1.31E+10,,
275.63,1.08E+10,,
275.67,8.44E+09,,
275.71,6.35E+09,,
275.76,4.19E+09,,
275.8,2.87E+09,,
275.84,1.88E+09,,
275.88,1.18E+09,,
275.93,6.24E+08,,
275.97,3.57E+08,,
276.01,1.95E+08,,
276.05,1.03E+08,,
276.1,4.33E+07,,
276.14,2.07E+07,,
276.18,9.49E+06,,
276.23,3.37E+06,,
276.27,1.40E+06,,
276.31,5.61E+05,,
276.35,2.15E+05,,
276.4,6.10E+04,,
276.44,2.13E+04,,
276.48,7.10E+03,,
276.52,2.27E+03,,
276.57,5.16E+02,,
276.61,1.50E+02,,
276.65,4.19E+01,,
276.69,1.12E+01,,
276.74,2.03E+00,,
276.78,4.95E-01,,
276.82,1.15E-01,,
276.86,2.58E-02,,
276.91,3.74E-03,,
276.95,7.61E-04,,
276.99,1.48E-04,,
277.03,2.78E-05,,
277.08,3.22E-06,,
286.77,1.35E-08,,
286.81,7.07E-08,,
286.85,3.55E-07,,
286.9,2.53E-06,,
286.94,1.17E-05,,
286.98,5.18E-05,,
287.02,2.21E-04,,
287.07,1.29E-03,,
287.11,5.03E-03,,
287.15,1.90E-02,,
287.19,6.87E-02,,
287.24,3.26E-01,,
287.28,1.08E+00,,
287.32,3.46E+00,,
287.36,1.07E+01,,
287.41,4.12E+01,,
287.45,1.16E+02,,
287.49,3.16E+02,,
287.53,8.26E+02,,
287.58,2.60E+03,,
287.62,6.24E+03,,
287.66,1.44E+04,,
287.7,3.20E+04,,
287.75,8.20E+04,,
287.79,1.67E+05,,
287.83,3.27E+05,,
287.87,6.17E+05,,
287.92,1.29E+06,,
287.96,2.24E+06,,
288,3.72E+06,,
288.04,5.96E+06,,
288.09,1.02E+07,,
288.13,1.49E+07,,
288.17,2.11E+07,,
288.21,2.87E+07,,
288.26,4.00E+07,,
288.3,4.98E+07,,
288.34,5.98E+07,,
288.38,6.91E+07,,
288.43,7.84E+07,,
288.47,8.32E+07,,
288.51,8.51E+07,,
288.55,8.41E+07,,
288.6,7.98E+07,,
288.64,7.60E+07,,
288.68,7.50E+07,,
288.72,8.17E+07,,
288.77,1.14E+08,,
288.81,1.77E+08,,
288.85,2.97E+08,,
288.89,5.08E+08,,
288.94,9.77E+08,,
288.98,1.60E+09,,
289.02,2.52E+09,,
289.06,3.83E+09,,
289.11,6.13E+09,,
289.15,8.57E+09,,
289.19,1.15E+10,,
289.23,1.49E+10,,
289.28,1.95E+10,,
289.32,2.31E+10,,
289.36,2.65E+10,,
289.4,2.91E+10,,
289.45,3.11E+10,,
289.49,3.14E+10,,
289.53,3.05E+10,,
289.57,2.85E+10,,
289.62,2.49E+10,,
289.66,2.13E+10,,
289.7,1.76E+10,,
289.75,1.32E+10,,
289.79,9.98E+09,,
289.83,7.28E+09,,
289.87,5.12E+09,,
289.92,3.12E+09,,
289.96,2.01E+09,,
290,1.25E+09,,
290.04,7.53E+08,,
290.09,3.82E+08,,
290.13,2.17E+08,,
290.17,1.23E+08,,
290.21,7.37E+07,,
290.26,4.70E+07,,
290.3,4.36E+07,,
290.34,5.44E+07,,
290.38,8.49E+07,,
290.43,1.72E+08,,
290.47,3.13E+08,,
290.51,5.63E+08,,
290.55,9.91E+08,,
290.6,1.92E+09,,
290.64,3.13E+09,,
290.68,4.92E+09,,
290.72,7.45E+09,,
290.77,1.19E+10,,
290.81,1.65E+10,,
290.85,2.21E+10,,
290.89,2.85E+10,,
290.94,3.72E+10,,
290.98,4.41E+10,,
291.02,5.03E+10,,
291.06,5.53E+10,,
291.11,5.90E+10,,
291.15,5.96E+10,,
291.19,5.79E+10,,
291.23,5.42E+10,,
291.28,4.73E+10,,
291.32,4.07E+10,,
291.36,3.37E+10,,
291.4,2.69E+10,,
291.45,1.92E+10,,
291.49,1.41E+10,,
291.53,9.91E+09,,
291.57,6.73E+09,,
291.62,3.94E+09,,
291.66,2.46E+09,,
291.7,1.48E+09,,
291.74,8.53E+08,,
291.79,4.08E+08,,
291.83,2.17E+08,,
291.87,1.11E+08,,
291.91,5.47E+07,,
291.96,2.14E+07,,
292,9.68E+06,,
292.04,4.22E+06,,
292.08,1.77E+06,,
292.13,5.67E+05,,
292.17,2.19E+05,,
292.21,8.12E+04,,
292.25,2.90E+04,,
292.3,7.61E+03,,
292.34,2.50E+03,,
292.38,7.90E+02,,
292.42,2.40E+02,,
292.47,5.16E+01,,
292.51,1.44E+01,,
292.55,3.88E+00,,
292.59,1.01E+00,,
292.64,1.77E-01,,
292.68,4.21E-02,,
292.72,9.66E-03,,
292.76,2.13E-03,,
292.81,3.06E-04,,
292.85,6.21E-05,,
292.89,1.21E-05,,
297.14,4.35E-08,,
297.19,3.13E-07,,
297.23,1.46E-06,,
297.27,6.58E-06,,
297.31,2.86E-05,,
297.36,1.70E-04,,
297.4,6.82E-04,,
297.44,2.63E-03,,
297.48,9.82E-03,,
297.53,4.84E-02,,
297.57,1.67E-01,,
297.61,5.53E-01,,
297.65,1.77E+00,,
297.7,7.21E+00,,
297.74,2.13E+01,,
297.78,6.07E+01,,
297.82,1.67E+02,,
297.87,5.62E+02,,
297.91,1.43E+03,,
297.95,3.49E+03,,
297.99,8.25E+03,,
298.04,2.30E+04,,
298.08,5.00E+04,,
298.12,1.05E+05,,
298.16,2.13E+05,,
298.21,4.91E+05,,
298.25,9.19E+05,,
298.29,1.66E+06,,
298.33,2.89E+06,,
298.38,5.50E+06,,
298.42,8.84E+06,,
298.46,1.37E+07,,
298.5,2.05E+07,,
298.55,3.23E+07,,
298.59,4.46E+07,,
298.63,5.93E+07,,
298.67,7.62E+07,,
298.72,9.92E+07,,
298.76,1.18E+08,,
298.8,1.34E+08,,
298.84,1.48E+08,,
298.89,1.60E+08,,
298.93,1.62E+08,,
298.97,1.60E+08,,
299.01,1.51E+08,,
299.06,1.34E+08,,
299.1,1.18E+08,,
299.14,9.92E+07,,
299.18,8.07E+07,,
299.23,5.93E+07,,
299.27,4.46E+07,,
299.31,3.23E+07,,
299.35,2.26E+07,,
299.4,1.37E+07,,
299.44,8.84E+06,,
299.48,5.50E+06,,
299.52,3.30E+06,,
299.57,1.66E+06,,
299.61,9.19E+05,,
299.65,4.91E+05,,
299.69,2.53E+05,,
299.74,1.05E+05,,
299.78,5.00E+04,,
299.82,2.30E+04,,
299.86,1.02E+04,,
299.91,3.49E+03,,
299.95,1.43E+03,,
299.99,5.62E+02,,
300.03,2.14E+02,,
300.08,6.07E+01,,
300.12,2.13E+01,,
300.16,7.21E+00,,
300.2,2.35E+00,,
300.25,5.53E-01,,
300.29,1.67E-01,,
300.33,4.84E-02,,
300.37,1.36E-02,,
300.42,2.63E-03,,
300.46,6.82E-04,,
300.5,1.70E-04,,
300.54,4.10E-05,,
300.59,6.58E-06,,
300.63,1.46E-06,,
300.67,3.13E-07,,
300.71,6.48E-08,,
305.9,4.57E-06,,
305.94,2.16E-05,,
305.99,1.44E-04,,
306.03,6.30E-04,,
306.07,2.67E-03,,
306.11,1.10E-02,,
306.16,6.09E-02,,
306.2,2.31E-01,,
306.24,8.49E-01,,
306.28,3.01E+00,,
306.33,1.40E+01,,
306.37,4.61E+01,,
306.41,1.47E+02,,
306.45,4.51E+02,,
306.5,1.75E+03,,
306.54,4.99E+03,,
306.58,1.38E+04,,
306.62,3.66E+04,,
306.67,1.19E+05,,
306.71,2.93E+05,,
306.75,7.00E+05,,
306.79,1.62E+06,,
306.84,4.38E+06,,
306.88,9.37E+06,,
306.92,1.94E+07,,
306.96,3.87E+07,,
307.01,8.78E+07,,
307.05,1.63E+08,,
307.09,2.91E+08,,
307.13,5.04E+08,,
307.18,9.55E+08,,
307.22,1.53E+09,,
307.26,2.38E+09,,
307.3,3.57E+09,,
307.35,5.65E+09,,
307.39,7.85E+09,,
307.43,1.06E+10,,
307.47,1.37E+10,,
307.52,1.81E+10,,
307.56,2.19E+10,,
307.6,2.55E+10,,
307.64,2.87E+10,,
307.69,3.17E+10,,
307.73,3.31E+10,,
307.77,3.34E+10,,
307.81,3.26E+10,,
307.86,3.02E+10,,
307.9,2.74E+10,,
307.94,2.40E+10,,
307.98,2.04E+10,,
308.03,1.59E+10,,
308.07,1.26E+10,,
308.11,9.71E+09,,
308.15,7.26E+09,,
308.2,4.87E+09,,
308.24,3.45E+09,,
308.28,2.39E+09,,
308.32,1.63E+09,,
308.37,9.95E+08,,
308.41,6.62E+08,,
308.45,4.37E+08,,
308.49,2.86E+08,,
308.54,1.67E+08,,
308.58,1.07E+08,,
308.62,6.81E+07,,
308.66,4.25E+07,,
308.71,2.29E+07,,
308.75,1.36E+07,,
308.79,7.91E+06,,
308.83,4.46E+06,,
308.88,2.09E+06,,
308.92,1.10E+06,,
308.96,5.63E+05,,
309,2.78E+05,,
309.05,1.10E+05,,
309.09,5.07E+04,,
309.13,2.25E+04,,
309.17,9.69E+03,,
309.22,3.22E+03,,
309.26,1.29E+03,,
309.3,4.96E+02,,
309.34,1.85E+02,,
309.39,5.14E+01,,
309.43,1.78E+01,,
309.47,5.95E+00,,
309.51,1.92E+00,,
309.56,4.47E-01,,
309.6,1.34E-01,,
309.64,3.88E-02,,
309.68,1.09E-02,,
309.73,2.12E-03,,
309.77,5.49E-04,,
309.81,1.38E-04,,
309.86,2.34E-05,,
309.9,5.45E-06,,
309.94,1.23E-06,,
309.98,3.66E-07,,
310.03,6.58E-07,,
310.07,2.87E-06,,
310.11,1.21E-05,,
310.15,4.94E-05,,
310.2,2.74E-04,,
310.24,1.04E-03,,
310.28,3.81E-03,,
310.32,1.35E-02,,
310.37,6.29E-02,,
310.41,2.07E-01,,
310.45,6.61E-01,,
310.49,2.04E+00,,
310.54,7.97E+00,,
310.58,2.28E+01,,
310.62,6.34E+01,,
310.66,1.70E+02,,
310.71,5.58E+02,,
310.75,1.39E+03,,
310.79,3.35E+03,,
310.83,7.82E+03,,
310.88,2.15E+04,,
310.92,4.67E+04,,
310.96,9.78E+04,,
311,1.98E+05,,
311.05,4.59E+05,,
311.09,8.64E+05,,
311.13,1.58E+06,,
311.17,2.78E+06,,
311.22,5.40E+06,,
311.26,8.84E+06,,
311.3,1.40E+07,,
311.34,2.15E+07,,
311.39,3.50E+07,,
311.43,4.99E+07,,
311.47,6.88E+07,,
311.51,9.17E+07,,
311.56,1.26E+08,,
311.6,1.55E+08,,
311.64,1.86E+08,,
311.68,2.16E+08,,
311.73,2.48E+08,,
311.77,2.67E+08,,
311.81,2.79E+08,,
311.85,2.81E+08,,
311.9,2.71E+08,,
311.94,2.54E+08,,
311.98,2.30E+08,,
312.02,2.01E+08,,
312.07,1.63E+08,,
312.11,1.33E+08,,
312.15,1.05E+08,,
312.19,7.98E+07,,
312.24,5.42E+07,,
312.28,3.84E+07,,
312.32,2.63E+07,,
312.36,1.74E+07,,
312.41,9.95E+06,,
312.45,6.12E+06,,
312.49,3.65E+06,,
312.53,2.10E+06,,
312.58,1.01E+06,,
312.62,5.39E+05,,
312.66,2.79E+05,,
312.7,1.40E+05,,
312.75,5.63E+04,,
312.79,2.62E+04,,
312.83,1.18E+04,,
312.87,5.14E+03,,
312.92,1.74E+03,,
312.96,7.03E+02,,
313,2.75E+02,,
313.04,1.04E+02,,
313.09,2.96E+01,,
313.13,1.04E+01,,
313.17,3.54E+00,,
313.21,1.17E+00,,
313.26,2.78E-01,,
313.3,8.50E-02,,
313.34,2.52E-02,,
313.38,7.20E-03,,
313.43,1.44E-03,,
313.47,3.83E-04,,
313.51,9.86E-05,,
313.55,2.46E-05,,
313.6,4.12E-06,,
313.64,9.53E-07,,
313.68,2.13E-07,,
313.72,4.62E-08,,
315.21,1.56E-08,,
315.25,7.10E-08,,
315.3,4.54E-07,,
315.34,1.93E-06,,
315.38,7.95E-06,,
315.42,3.17E-05,,
315.47,1.71E-04,,
315.51,6.36E-04,,
315.55,2.29E-03,,
315.59,7.98E-03,,
315.64,3.63E-02,,
315.68,1.18E-01,,
315.72,3.71E-01,,
315.76,1.13E+00,,
315.81,4.34E+00,,
315.85,1.23E+01,,
315.89,3.38E+01,,
315.93,8.99E+01,,
315.98,2.92E+02,,
316.02,7.24E+02,,
316.06,1.74E+03,,
316.1,4.03E+03,,
316.15,1.11E+04,,
316.19,2.39E+04,,
316.23,5.02E+04,,
316.27,1.02E+05,,
316.32,2.36E+05,,
316.36,4.46E+05,,
316.4,8.16E+05,,
316.44,1.45E+06,,
316.49,2.83E+06,,
316.53,4.67E+06,,
316.57,7.47E+06,,
316.62,1.28E+07,,
316.66,1.91E+07,,
316.7,2.76E+07,,
316.74,3.85E+07,,
316.79,5.59E+07,,
316.83,7.26E+07,,
316.87,9.15E+07,,
316.91,1.12E+08,,
316.96,1.37E+08,,
317,1.55E+08,,
317.04,1.71E+08,,
317.08,1.82E+08,,
317.13,1.89E+08,,
317.17,1.87E+08,,
317.21,1.80E+08,,
317.25,1.67E+08,,
317.3,1.46E+08,,
317.34,1.27E+08,,
317.38,1.07E+08,,
317.42,8.66E+07,,
317.47,6.40E+07,,
317.51,4.84E+07,,
317.55,3.55E+07,,
317.59,2.52E+07,,
317.64,1.57E+07,,
317.68,1.04E+07,,
317.72,6.66E+06,,
317.76,4.13E+06,,
317.81,2.18E+06,,
317.85,1.26E+06,,
317.89,7.03E+05,,
317.93,3.81E+05,,
317.98,1.70E+05,,
318.02,8.55E+04,,
318.06,4.18E+04,,
318.1,1.98E+04,,
318.15,7.43E+03,,
318.19,3.28E+03,,
318.23,1.40E+03,,
318.27,5.79E+02,,
318.32,1.84E+02,,
318.36,7.06E+01,,
318.4,2.63E+01,,
318.44,9.52E+00,,
318.49,2.55E+00,,
318.53,8.57E-01,,
318.57,2.79E-01,,
318.61,8.81E-02,,
318.66,1.99E-02,,
318.7,5.86E-03,,
318.74,1.67E-03,,
318.78,4.59E-04,,
318.83,8.77E-05,,
318.87,2.25E-05,,
318.91,5.60E-06,,
318.95,1.35E-06,,
319,2.17E-07,,
319.04,4.87E-08,,
323.46,1.75E-06,,
323.5,7.65E-06,,
323.55,4.62E-05,,
323.59,1.89E-04,,
323.63,7.45E-04,,
323.67,2.86E-03,,
323.72,1.47E-02,,
323.76,5.27E-02,,
323.8,1.83E-01,,
323.84,6.19E-01,,
323.89,2.71E+00,,
323.93,8.55E+00,,
323.97,2.62E+01,,
324.01,7.76E+01,,
324.06,2.90E+02,,
324.1,8.04E+02,,
324.14,2.16E+03,,
324.18,5.64E+03,,
324.23,1.79E+04,,
324.27,4.37E+04,,
324.31,1.04E+05,,
324.35,2.38E+05,,
324.4,6.43E+05,,
324.44,1.38E+06,,
324.48,2.87E+06,,
324.52,5.79E+06,,
324.57,1.34E+07,,
324.61,2.52E+07,,
324.65,4.61E+07,,
324.69,8.19E+07,,
324.74,1.61E+08,,
324.78,2.67E+08,,
324.82,4.30E+08,,
324.86,6.71E+08,,
324.91,1.12E+09,,
324.95,1.64E+09,,
324.99,2.32E+09,,
325.03,3.18E+09,,
325.08,4.53E+09,,
325.12,5.82E+09,,
325.16,7.24E+09,,
325.2,8.75E+09,,
325.25,1.06E+10,,
325.29,1.20E+10,,
325.33,1.31E+10,,
325.37,1.39E+10,,
325.42,1.44E+10,,
325.46,1.43E+10,,
325.5,1.38E+10,,
325.54,1.29E+10,,
325.59,1.13E+10,,
325.63,9.88E+09,,
325.67,8.37E+09,,
325.71,6.88E+09,,
325.76,5.16E+09,,
325.8,3.96E+09,,
325.84,2.95E+09,,
325.88,2.13E+09,,
325.93,1.36E+09,,
325.97,9.18E+08,,
326.01,6.02E+08,,
326.05,3.82E+08,,
326.1,2.08E+08,,
326.14,1.24E+08,,
326.18,7.11E+07,,
326.22,3.98E+07,,
326.27,1.84E+07,,
326.31,9.62E+06,,
326.35,4.87E+06,,
326.39,2.40E+06,,
326.44,9.45E+05,,
326.48,4.34E+05,,
326.52,1.94E+05,,
326.56,8.37E+04,,
326.61,2.82E+04,,
326.65,1.15E+04,,
326.69,4.82E+03,,
326.73,2.60E+03,,
326.78,3.11E+03,,
326.82,6.13E+03,,
326.86,1.32E+04,,
326.9,2.82E+04,,
326.95,6.99E+04,,
326.99,1.40E+05,,
327.03,2.73E+05,,
327.07,5.16E+05,,
327.12,1.10E+06,,
327.16,1.95E+06,,
327.2,3.37E+06,,
327.24,5.65E+06,,
327.29,1.04E+07,,
327.33,1.64E+07,,
327.37,2.52E+07,,
327.41,3.77E+07,,
327.46,6.04E+07,,
327.5,8.56E+07,,
327.54,1.19E+08,,
327.58,1.60E+08,,
327.63,2.27E+08,,
327.67,2.93E+08,,
327.71,3.70E+08,,
327.75,4.58E+08,,
327.8,5.83E+08,,
327.84,6.90E+08,,
327.88,8.02E+08,,
327.92,9.13E+08,,
327.97,1.04E+09,,
328.01,1.13E+09,,
328.05,1.20E+09,,
328.09,1.24E+09,,
328.14,1.26E+09,,
328.18,1.23E+09,,
328.22,1.18E+09,,
328.26,1.10E+09,,
328.31,9.71E+08,,
328.35,8.52E+08,,
328.39,7.27E+08,,
328.43,6.04E+08,,
328.48,4.59E+08,,
328.52,3.58E+08,,
328.56,2.71E+08,,
328.6,1.99E+08,,
328.65,1.30E+08,,
328.69,8.93E+07,,
328.73,5.97E+07,,
328.77,3.88E+07,,
328.82,2.17E+07,,
328.86,1.32E+07,,
328.9,7.76E+06,,
328.94,4.44E+06,,
328.99,2.12E+06,,
329.03,1.14E+06,,
329.07,5.91E+05,,
329.11,2.98E+05,,
329.16,1.22E+05,,
329.2,5.74E+04,,
329.24,2.63E+04,,
329.28,1.17E+04,,
329.33,4.08E+03,,
329.37,1.70E+03,,
329.41,6.87E+02,,
329.45,2.69E+02,,
329.5,8.02E+01,,
329.54,2.94E+01,,
329.58,1.05E+01,,
329.62,3.70E+00,,
329.67,1.27E+00,,
329.71,1.36E+00,,
329.75,3.22E+00,,
329.79,8.97E+00,,
329.84,3.19E+01,,
329.88,8.54E+01,,
329.92,2.22E+02,,
329.96,5.60E+02,,
330.01,1.71E+03,,
330.05,4.05E+03,,
330.09,9.29E+03,,
330.14,2.52E+04,,
330.18,5.42E+04,,
330.22,1.13E+05,,
330.26,2.30E+05,,
330.31,5.34E+05,,
330.35,1.01E+06,,
330.39,1.87E+06,,
330.43,3.35E+06,,
330.48,6.68E+06,,
330.52,1.12E+07,,
330.56,1.83E+07,,
330.6,2.89E+07,,
330.65,4.93E+07,,
330.69,7.31E+07,,
330.73,1.05E+08,,
330.77,1.47E+08,,
330.82,2.15E+08,,
330.86,2.81E+08,,
330.9,3.58E+08,,
330.94,4.42E+08,,
330.99,5.53E+08,,
331.03,6.40E+08,,
331.07,7.19E+08,,
331.11,7.85E+08,,
331.16,8.40E+08,,
331.2,8.59E+08,,
331.24,8.52E+08,,
331.28,8.22E+08,,
331.33,7.54E+08,,
331.37,6.81E+08,,
331.41,5.97E+08,,
331.45,5.08E+08,,
331.5,3.99E+08,,
331.54,3.19E+08,,
331.58,2.47E+08,,
331.62,1.86E+08,,
331.67,1.25E+08,,
331.71,8.80E+07,,
331.75,6.02E+07,,
331.79,4.00E+07,,
331.84,2.31E+07,,
331.88,1.44E+07,,
331.92,8.68E+06,,
331.96,5.10E+06,,
332.01,2.52E+06,,
332.05,1.38E+06,,
332.09,7.39E+05,,
332.13,3.83E+05,,
332.18,1.62E+05,,
332.22,7.87E+04,,
332.26,3.71E+04,,
332.3,1.70E+04,,
332.35,6.16E+03,,
332.39,2.64E+03,,
332.43,1.10E+03,,
332.47,4.46E+02,,
332.52,1.38E+02,,
332.56,5.24E+01,,
332.6,1.93E+01,,
332.64,6.90E+00,,
332.69,1.83E+00,,
332.73,6.13E-01,,
332.77,1.99E-01,,
332.81,6.30E-02,,
332.86,1.43E-02,,
332.9,4.24E-03,,
332.94,1.22E-03,,
332.98,3.40E-04,,
333.03,6.62E-05,,
333.07,1.73E-05,,
333.11,4.39E-06,,
333.15,1.08E-06,,
333.2,1.81E-07,,
333.92,1.17E-07,,
333.96,4.91E-07,,
334,2.00E-06,,
334.05,1.11E-05,,
334.09,4.24E-05,,
334.13,1.57E-04,,
334.17,5.67E-04,,
334.22,2.71E-03,,
334.26,9.17E-03,,
334.3,3.02E-02,,
334.34,9.64E-02,,
334.39,3.96E-01,,
334.43,1.19E+00,,
334.47,3.47E+00,,
334.51,9.83E+00,,
334.56,3.47E+01,,
334.6,9.24E+01,,
334.64,2.39E+02,,
334.68,6.00E+02,,
334.73,1.83E+03,,
334.77,4.30E+03,,
334.81,9.86E+03,,
334.85,2.20E+04,,
334.9,5.74E+04,,
334.94,1.20E+05,,
334.98,2.44E+05,,
335.02,4.82E+05,,
335.07,1.08E+06,,
335.11,2.01E+06,,
335.15,3.61E+06,,
335.19,6.33E+06,,
335.24,1.22E+07,,
335.28,2.01E+07,,
335.32,3.21E+07,,
335.36,4.98E+07,,
335.41,8.29E+07,,
335.45,1.21E+08,,
335.49,1.71E+08,,
335.53,2.35E+08,,
335.58,3.37E+08,,
335.62,4.34E+08,,
335.66,5.45E+08,,
335.7,6.65E+08,,
335.75,8.18E+08,,
335.79,9.36E+08,,
335.83,1.04E+09,,
