Wavelength,Spectra
253.27,9.26E-10
253.31,6.10E-09
253.35,3.82E-08
253.39,2.28E-07
253.44,1.99E-06
253.48,1.06E-05
253.52,5.39E-05
253.56,2.61E-04
253.61,1.75E-03
253.65,7.57E-03
253.69,3.12E-02
253.73,1.23E-01
253.78,6.32E-01
253.82,2.22E+00
253.86,7.43E+00
253.9,2.37E+01
253.95,9.39E+01
253.99,2.68E+02
254.03,7.26E+02
254.07,1.87E+03
254.12,5.72E+03
254.16,1.32E+04
254.2,2.91E+04
254.24,6.09E+04
254.29,1.43E+05
254.33,2.69E+05
254.37,4.79E+05
254.41,8.14E+05
254.46,1.47E+06
254.5,2.24E+06
254.54,3.24E+06
254.58,4.46E+06
254.63,6.21E+06
254.67,7.66E+06
254.71,8.99E+06
254.75,1.01E+07
254.8,1.08E+07
254.84,1.08E+07
254.88,1.03E+07
254.92,9.29E+06
254.97,7.66E+06
255.01,6.21E+06
255.05,4.80E+06
255.09,3.53E+06
255.14,2.24E+06
255.18,1.47E+06
255.22,9.22E+05
255.26,5.50E+05
255.31,2.69E+05
255.35,1.43E+05
255.39,7.28E+04
255.43,3.52E+04
255.48,1.32E+04
255.52,5.72E+03
255.56,2.36E+03
255.6,9.24E+02
255.65,2.69E+02
255.69,9.94E+01
255.73,4.97E+01
255.77,6.81E+01
255.82,2.32E+02
255.86,6.53E+02
255.9,1.77E+03
255.95,5.72E+03
255.99,1.39E+04
256.03,3.21E+04
256.07,7.06E+04
256.12,1.77E+05
256.16,3.49E+05
256.2,6.56E+05
256.24,1.18E+06
256.29,2.27E+06
256.33,3.65E+06
256.37,5.58E+06
256.41,8.13E+06
256.46,1.22E+07
256.5,1.59E+07
256.54,1.98E+07
256.58,2.34E+07
256.63,2.71E+07
256.67,2.88E+07
256.71,2.91E+07
256.75,2.81E+07
256.8,2.50E+07
256.84,2.16E+07
256.88,1.78E+07
256.92,1.40E+07
256.97,9.64E+06
257.01,6.78E+06
257.05,4.54E+06
257.09,2.90E+06
257.14,1.54E+06
257.18,8.83E+05
257.22,4.81E+05
257.26,2.50E+05
257.31,1.03E+05
257.35,4.79E+04
257.39,2.12E+04
257.43,8.96E+03
257.48,2.85E+03
257.52,1.08E+03
257.56,3.89E+02
257.6,1.34E+02
257.65,3.29E+01
257.69,1.01E+01
257.73,2.97E+00
257.77,8.30E-01
257.82,1.58E-01
257.86,3.95E-02
257.9,9.43E-03
257.94,2.14E-03
257.99,3.14E-04
258.03,6.41E-05
258.07,1.24E-05
258.11,2.30E-06
258.16,2.61E-07
258.2,4.33E-08
258.24,6.83E-09
259.56,1.10E-08
259.6,6.67E-08
259.64,3.88E-07
259.69,3.27E-06
259.73,1.71E-05
259.77,8.55E-05
259.81,4.07E-04
259.86,2.68E-03
259.9,1.15E-02
259.94,4.69E-02
259.98,1.83E-01
260.03,9.40E-01
260.07,3.30E+00
260.11,1.11E+01
260.15,3.53E+01
260.2,1.42E+02
260.24,4.07E+02
260.28,1.12E+03
260.32,2.93E+03
260.37,9.16E+03
260.41,2.16E+04
260.45,4.87E+04
260.49,1.05E+05
260.54,2.57E+05
260.58,4.98E+05
260.62,9.24E+05
260.66,1.64E+06
260.71,3.15E+06
260.75,5.07E+06
260.79,7.79E+06
260.83,1.15E+07
260.88,1.76E+07
260.92,2.37E+07
260.96,3.06E+07
261,3.80E+07
261.05,4.74E+07
261.09,5.44E+07
261.13,6.03E+07
261.17,6.47E+07
261.22,6.76E+07
261.26,6.78E+07
261.3,6.64E+07
261.34,6.38E+07
261.39,5.94E+07
261.43,5.59E+07
261.47,5.27E+07
261.51,5.01E+07
261.56,4.78E+07
261.6,4.62E+07
261.64,4.47E+07
261.68,4.26E+07
261.73,3.91E+07
261.77,3.55E+07
261.81,3.15E+07
261.85,2.72E+07
261.9,2.21E+07
261.94,1.85E+07
261.98,1.56E+07
262.02,1.33E+07
262.07,1.12E+07
262.11,9.87E+06
262.15,8.70E+06
262.19,7.59E+06
262.24,6.21E+06
262.28,5.14E+06
262.32,4.16E+06
262.36,3.36E+06
262.41,2.76E+06
262.45,2.75E+06
262.49,3.29E+06
262.53,4.57E+06
262.58,7.47E+06
262.62,1.11E+07
262.66,1.59E+07
262.71,2.38E+07
262.75,3.13E+07
262.79,3.94E+07
262.83,4.75E+07
262.88,5.64E+07
262.92,6.17E+07
262.96,6.47E+07
263,6.50E+07
263.05,6.16E+07
263.09,5.64E+07
263.13,4.96E+07
263.17,4.19E+07
263.22,3.22E+07
263.26,2.51E+07
263.3,1.91E+07
263.34,1.44E+07
263.39,1.06E+07
263.43,9.30E+06
263.47,9.46E+06
263.51,1.11E+07
263.56,1.50E+07
263.6,1.96E+07
263.64,2.52E+07
263.68,3.16E+07
263.73,4.02E+07
263.77,4.71E+07
263.81,5.38E+07
263.85,5.99E+07
263.9,6.64E+07
263.94,7.04E+07
263.98,7.31E+07
264.02,7.43E+07
264.07,7.35E+07
264.11,7.08E+07
264.15,6.66E+07
264.19,6.12E+07
264.24,5.33E+07
264.28,4.67E+07
264.32,4.05E+07
264.36,3.48E+07
264.41,2.91E+07
264.45,2.57E+07
264.49,2.35E+07
264.53,2.28E+07
264.58,2.41E+07
264.62,2.73E+07
264.66,3.25E+07
264.7,3.96E+07
264.75,5.05E+07
264.79,6.01E+07
264.83,6.92E+07
264.87,7.69E+07
264.92,8.27E+07
264.96,8.36E+07
265,8.10E+07
265.04,7.53E+07
265.09,6.52E+07
265.13,5.61E+07
265.17,4.73E+07
265.21,3.97E+07
265.26,3.30E+07
265.3,3.01E+07
265.34,2.92E+07
265.38,2.99E+07
265.43,3.25E+07
265.47,3.53E+07
265.51,3.84E+07
265.55,4.15E+07
265.6,4.52E+07
265.64,4.77E+07
265.68,4.97E+07
265.72,5.08E+07
265.77,5.07E+07
265.81,4.91E+07
265.85,4.61E+07
265.89,4.19E+07
265.94,3.53E+07
265.98,2.95E+07
266.02,2.37E+07
266.06,1.85E+07
266.11,1.32E+07
266.15,1.02E+07
266.19,8.23E+06
266.23,7.29E+06
266.28,7.27E+06
266.32,7.91E+06
266.36,8.87E+06
266.4,9.89E+06
266.45,1.09E+07
266.49,1.14E+07
266.53,1.13E+07
266.57,1.08E+07
266.62,9.59E+06
266.66,8.28E+06
266.7,6.83E+06
266.74,5.40E+06
266.79,3.77E+06
266.83,2.69E+06
266.87,1.83E+06
266.91,1.19E+06
266.96,6.57E+05
267,3.87E+05
267.04,2.18E+05
267.08,1.19E+05
267.13,5.51E+04
267.17,3.60E+04
267.21,3.90E+04
267.25,6.93E+04
267.3,1.76E+05
267.34,3.67E+05
267.38,7.40E+05
267.42,1.43E+06
267.47,3.05E+06
267.51,5.32E+06
267.55,8.88E+06
267.59,1.42E+07
267.64,2.39E+07
267.68,3.45E+07
267.72,4.77E+07
267.76,6.31E+07
267.81,8.40E+07
267.85,1.01E+08
267.89,1.15E+08
267.93,1.26E+08
267.98,1.34E+08
268.02,1.34E+08
268.06,1.29E+08
268.1,1.20E+08
268.15,1.05E+08
268.19,9.21E+07
268.23,8.00E+07
268.27,6.96E+07
268.32,5.91E+07
268.36,5.25E+07
268.4,4.72E+07
268.44,4.23E+07
268.49,3.64E+07
268.53,3.16E+07
268.57,2.66E+07
268.61,2.16E+07
268.66,1.58E+07
268.7,1.18E+07
268.74,8.42E+06
268.78,5.76E+06
268.83,3.37E+06
268.87,2.09E+06
268.91,1.24E+06
268.95,7.03E+05
269,3.25E+05
269.04,1.67E+05
269.08,8.21E+04
269.12,3.86E+04
269.17,1.42E+04
269.21,6.12E+03
269.25,2.75E+03
269.29,1.71E+03
269.34,2.52E+03
269.38,5.14E+03
269.42,1.09E+04
269.47,2.67E+04
269.51,5.21E+04
269.55,9.73E+04
269.59,1.74E+05
269.64,3.38E+05
269.68,5.48E+05
269.72,8.50E+05
269.76,1.26E+06
269.81,1.94E+06
269.85,2.62E+06
269.89,3.37E+06
269.93,4.16E+06
269.98,5.10E+06
270.02,5.73E+06
270.06,6.20E+06
270.1,6.47E+06
270.15,6.56E+06
270.19,6.50E+06
270.23,6.42E+06
270.27,6.42E+06
270.32,6.67E+06
270.36,7.14E+06
270.4,7.85E+06
270.44,8.72E+06
270.49,9.89E+06
270.53,1.07E+07
270.57,1.13E+07
270.61,1.15E+07
270.66,1.13E+07
270.7,1.07E+07
270.74,9.96E+06
270.78,9.09E+06
270.83,8.05E+06
270.87,7.37E+06
270.91,6.86E+06
270.95,6.51E+06
271,6.20E+06
271.04,5.97E+06
271.08,5.68E+06
271.12,5.29E+06
271.17,4.64E+06
271.21,4.02E+06
271.25,3.35E+06
271.29,2.68E+06
271.34,1.92E+06
271.38,1.40E+06
271.42,9.73E+05
271.46,6.50E+05
271.51,3.69E+05
271.55,2.24E+05
271.59,1.30E+05
271.63,7.26E+04
271.68,3.40E+04
271.72,1.99E+04
271.76,1.59E+04
271.8,2.11E+04
271.85,4.53E+04
271.89,8.82E+04
271.93,1.67E+05
271.97,3.06E+05
272.02,6.12E+05
272.06,1.02E+06
272.1,1.61E+06
272.14,2.46E+06
272.19,3.91E+06
272.23,5.41E+06
272.27,7.17E+06
272.31,9.11E+06
272.36,1.16E+07
272.4,1.34E+07
272.44,1.49E+07
272.48,1.59E+07
272.53,1.63E+07
272.57,1.60E+07
272.61,1.53E+07
272.65,1.41E+07
272.7,1.25E+07
272.74,1.11E+07
272.78,9.91E+06
272.82,8.91E+06
272.87,8.06E+06
272.91,7.77E+06
272.95,7.89E+06
272.99,8.46E+06
273.04,9.85E+06
273.08,1.15E+07
273.12,1.35E+07
273.16,1.58E+07
273.21,1.86E+07
273.25,2.05E+07
273.29,2.18E+07
273.33,2.24E+07
273.38,2.18E+07
273.42,2.04E+07
273.46,1.83E+07
273.5,1.58E+07
273.55,1.23E+07
273.59,9.61E+06
273.63,7.21E+06
273.67,5.19E+06
273.72,3.27E+06
273.76,2.20E+06
273.8,1.50E+06
273.84,1.13E+06
273.89,1.05E+06
273.93,1.27E+06
273.97,1.76E+06
274.01,2.50E+06
274.06,3.83E+06
274.1,5.21E+06
274.14,6.83E+06
274.18,8.64E+06
274.23,1.10E+07
274.27,1.29E+07
274.31,1.45E+07
274.35,1.58E+07
274.4,1.68E+07
274.44,1.69E+07
274.48,1.66E+07
274.52,1.57E+07
274.57,1.41E+07
274.61,1.27E+07
274.65,1.12E+07
274.69,9.90E+06
274.74,8.85E+06
274.78,8.64E+06
274.82,9.10E+06
274.86,1.03E+07
274.91,1.26E+07
274.95,1.50E+07
274.99,1.75E+07
275.03,2.00E+07
275.08,2.25E+07
275.12,2.37E+07
275.16,2.40E+07
275.2,2.34E+07
275.25,2.14E+07
275.29,1.93E+07
275.33,1.68E+07
275.37,1.43E+07
275.42,1.15E+07
275.46,9.60E+06
275.5,8.18E+06
275.54,7.15E+06
275.59,6.35E+06
275.63,6.02E+06
275.67,5.92E+06
275.71,6.08E+06
275.76,6.71E+06
275.8,7.65E+06
275.84,9.07E+06
275.88,1.10E+07
275.93,1.40E+07
275.97,1.68E+07
276.01,1.96E+07
276.05,2.23E+07
276.1,2.50E+07
276.14,2.64E+07
276.18,2.69E+07
276.23,2.62E+07
276.27,2.49E+07
276.31,2.29E+07
276.35,2.07E+07
276.4,1.79E+07
276.44,1.57E+07
276.48,1.39E+07
276.52,1.23E+07
276.57,1.07E+07
276.61,9.54E+06
276.65,8.50E+06
276.69,7.49E+06
276.74,6.21E+06
276.78,5.18E+06
276.82,4.20E+06
276.86,3.28E+06
276.91,2.29E+06
276.95,1.65E+06
276.99,1.14E+06
277.03,7.53E+05
277.08,4.26E+05
277.12,2.57E+05
277.16,1.49E+05
277.2,8.30E+04
277.25,3.76E+04
277.29,1.91E+04
277.33,9.27E+03
277.37,4.32E+03
277.42,1.57E+03
277.46,6.66E+02
277.5,2.71E+02
277.54,1.06E+02
277.59,3.10E+01
277.63,1.17E+01
277.67,6.36E+00
277.71,9.31E+00
277.76,3.13E+01
277.8,8.70E+01
277.84,2.33E+02
277.88,6.02E+02
277.93,1.86E+03
277.97,4.36E+03
278.01,9.83E+03
278.05,2.13E+04
278.1,5.27E+04
278.14,1.04E+05
278.18,1.97E+05
278.22,3.58E+05
278.27,7.12E+05
278.31,1.18E+06
278.35,1.87E+06
278.39,2.86E+06
278.44,4.57E+06
278.48,6.35E+06
278.52,8.47E+06
278.56,1.09E+07
278.61,1.40E+07
278.65,1.63E+07
278.69,1.83E+07
278.73,1.97E+07
278.78,2.04E+07
278.82,2.01E+07
278.86,1.91E+07
278.9,1.75E+07
278.95,1.50E+07
278.99,1.30E+07
279.03,1.11E+07
279.07,9.50E+06
279.12,8.03E+06
279.16,7.25E+06
279.2,6.76E+06
279.24,6.46E+06
279.29,6.23E+06
279.33,6.09E+06
279.37,5.95E+06
279.41,5.84E+06
279.46,5.80E+06
279.5,5.91E+06
279.54,6.17E+06
279.58,6.61E+06
279.63,7.38E+06
279.67,8.10E+06
279.71,8.86E+06
279.75,9.59E+06
279.8,1.04E+07
279.84,1.10E+07
279.88,1.15E+07
279.92,1.20E+07
279.97,1.24E+07
280.01,1.27E+07
280.05,1.29E+07
280.09,1.28E+07
280.14,1.24E+07
280.18,1.18E+07
280.22,1.09E+07
280.26,9.72E+06
280.31,8.03E+06
280.35,6.62E+06
280.39,5.26E+06
280.43,4.01E+06
280.48,2.71E+06
280.52,1.89E+06
280.56,1.27E+06
280.6,8.19E+05
280.65,4.47E+05
280.69,2.63E+05
280.73,1.48E+05
280.77,8.05E+04
280.82,3.54E+04
280.86,1.75E+04
280.9,8.32E+03
280.94,3.80E+03
280.99,1.34E+03
281.03,5.59E+02
281.07,2.23E+02
281.11,8.57E+01
281.16,2.44E+01
281.2,8.55E+00
281.24,2.87E+00
281.28,9.35E-01
281.33,2.53E-01
281.37,2.00E-01
281.41,4.68E-01
281.45,1.43E+00
281.5,5.67E+00
281.54,1.64E+01
281.58,4.56E+01
281.62,1.22E+02
281.67,3.95E+02
281.71,9.67E+02
281.75,2.28E+03
281.79,5.17E+03
281.84,1.36E+04
281.88,2.83E+04
281.92,5.66E+04
281.96,1.09E+05
282.01,2.34E+05
282.05,4.14E+05
282.09,7.03E+05
282.13,1.15E+06
282.18,2.02E+06
282.22,3.04E+06
282.26,4.41E+06
282.3,6.15E+06
282.35,8.83E+06
282.39,1.13E+07
282.43,1.40E+07
282.47,1.66E+07
282.52,1.96E+07
282.56,2.14E+07
282.6,2.25E+07
282.64,2.28E+07
282.69,2.20E+07
282.73,2.04E+07
282.77,1.83E+07
282.81,1.58E+07
282.86,1.24E+07
282.9,9.85E+06
282.94,7.50E+06
282.99,5.06E+06
283.03,3.54E+06
283.07,2.38E+06
283.11,1.54E+06
283.16,8.44E+05
283.2,5.00E+05
283.24,2.85E+05
283.28,1.56E+05
283.33,6.97E+04
283.37,3.50E+04
283.41,1.69E+04
283.45,7.84E+03
283.5,2.84E+03
283.54,1.21E+03
283.58,4.92E+02
283.62,1.93E+02
283.67,5.66E+01
283.71,2.03E+01
283.75,7.00E+00
283.79,2.32E+00
283.84,5.52E-01
283.88,1.67E-01
283.92,4.87E-02
283.96,1.36E-02
284.01,2.62E-03
284.05,6.71E-04
284.09,1.65E-04
284.13,3.89E-05
284.18,6.06E-06
284.22,1.31E-06
284.26,2.72E-07
284.3,5.37E-08
284.35,6.76E-09
284.39,1.23E-09
284.73,9.68E-10
284.77,5.18E-09
284.81,2.66E-08
284.86,1.95E-07
284.9,9.20E-07
284.94,4.17E-06
284.98,1.82E-05
285.03,1.08E-04
285.07,4.32E-04
285.11,1.66E-03
285.15,6.13E-03
285.2,2.97E-02
285.24,1.00E-01
285.28,3.27E-01
285.32,1.02E+00
285.37,4.03E+00
285.41,1.15E+01
285.45,3.18E+01
285.49,8.43E+01
285.54,2.70E+02
285.58,6.55E+02
285.62,1.53E+03
285.66,3.44E+03
285.71,8.95E+03
285.75,1.84E+04
285.79,3.64E+04
285.83,6.93E+04
285.88,1.47E+05
285.92,2.56E+05
285.96,4.29E+05
286,6.91E+05
286.05,1.19E+06
286.09,1.76E+06
286.13,2.49E+06
286.17,3.41E+06
286.22,4.76E+06
286.26,5.96E+06
286.3,7.17E+06
286.34,8.30E+06
286.39,9.43E+06
286.43,1.00E+07
286.47,1.02E+07
286.51,1.00E+07
286.56,9.24E+06
286.6,8.30E+06
286.64,7.17E+06
286.68,5.96E+06
286.73,4.47E+06
286.77,3.41E+06
286.81,2.49E+06
286.85,1.76E+06
286.9,1.08E+06
286.94,7.12E+05
286.98,4.69E+05
287.02,3.32E+05
287.07,2.85E+05
287.11,3.40E+05
287.15,4.85E+05
287.19,7.31E+05
287.24,1.21E+06
287.28,1.76E+06
287.32,2.47E+06
287.36,3.33E+06
287.41,4.59E+06
287.45,5.67E+06
287.49,6.75E+06
287.53,7.73E+06
287.58,8.67E+06
287.62,9.10E+06
287.66,9.19E+06
287.7,8.92E+06
287.75,8.15E+06
287.79,7.26E+06
287.83,6.22E+06
287.87,5.13E+06
287.92,3.84E+06
287.96,2.93E+06
288,2.19E+06
288.04,1.65E+06
288.09,1.26E+06
288.13,1.21E+06
288.17,1.39E+06
288.21,1.84E+06
288.26,2.83E+06
288.3,3.98E+06
288.34,5.47E+06
288.38,7.27E+06
288.43,9.85E+06
288.47,1.21E+07
288.51,1.42E+07
288.55,1.61E+07
288.6,1.78E+07
288.64,1.85E+07
288.68,1.85E+07
288.72,1.78E+07
288.77,1.61E+07
288.81,1.42E+07
288.85,1.21E+07
288.89,9.85E+06
288.94,7.25E+06
288.98,5.44E+06
289.02,3.92E+06
289.06,2.72E+06
289.11,1.64E+06
289.15,1.04E+06
289.19,6.38E+05
289.23,3.76E+05
289.28,1.84E+05
289.32,9.97E+04
289.36,5.19E+04
289.4,2.60E+04
289.45,1.04E+04
289.49,4.80E+03
289.53,2.20E+03
289.57,1.12E+03
289.62,9.67E+02
289.66,1.70E+03
289.7,3.63E+03
289.75,9.47E+03
289.79,1.97E+04
289.83,3.95E+04
289.87,7.64E+04
289.92,1.66E+05
289.96,2.94E+05
290,5.05E+05
290.04,8.35E+05
290.09,1.49E+06
290.13,2.26E+06
290.17,3.31E+06
290.21,4.69E+06
290.26,6.86E+06
290.3,8.93E+06
290.34,1.12E+07
290.38,1.36E+07
290.43,1.64E+07
290.47,1.82E+07
290.51,1.96E+07
290.55,2.03E+07
290.6,2.02E+07
290.64,1.93E+07
290.68,1.78E+07
290.72,1.58E+07
290.77,1.30E+07
290.81,1.07E+07
290.85,8.63E+06
290.89,6.84E+06
290.94,5.16E+06
290.98,4.33E+06
291.02,3.95E+06
291.06,4.01E+06
291.11,4.63E+06
291.15,5.50E+06
291.19,6.61E+06
291.23,7.90E+06
291.28,9.60E+06
291.32,1.09E+07
291.36,1.21E+07
291.4,1.31E+07
291.45,1.39E+07
291.49,1.42E+07
291.53,1.42E+07
291.57,1.38E+07
291.62,1.31E+07
291.66,1.23E+07
291.7,1.14E+07
291.74,1.05E+07
291.79,9.34E+06
291.83,8.44E+06
291.87,7.57E+06
291.91,6.72E+06
291.96,5.67E+06
292,4.85E+06
292.04,4.05E+06
292.08,3.31E+06
292.13,2.46E+06
292.17,1.88E+06
292.21,1.39E+06
292.25,9.91E+05
292.3,6.28E+05
292.34,4.31E+05
292.38,3.05E+05
292.42,2.45E+05
292.47,2.56E+05
292.51,3.38E+05
292.55,4.96E+05
292.59,7.43E+05
292.64,1.20E+06
292.68,1.71E+06
292.72,2.34E+06
292.76,3.10E+06
292.81,4.17E+06
292.85,5.07E+06
292.89,5.95E+06
292.93,6.72E+06
292.98,7.45E+06
293.02,7.77E+06
293.06,7.85E+06
293.1,7.68E+06
293.15,7.23E+06
293.19,6.76E+06
293.23,6.30E+06
293.27,5.96E+06
293.32,5.80E+06
293.36,5.95E+06
293.4,6.34E+06
293.44,6.94E+06
293.49,7.84E+06
293.53,8.57E+06
293.57,9.18E+06
293.61,9.57E+06
293.66,9.65E+06
293.7,9.36E+06
293.74,8.76E+06
293.78,7.91E+06
293.83,6.65E+06
293.87,5.60E+06
293.91,4.63E+06
293.95,3.84E+06
294,3.23E+06
294.04,3.15E+06
294.08,3.52E+06
294.12,4.42E+06
294.17,6.40E+06
294.21,8.71E+06
294.25,1.17E+07
294.29,1.53E+07
294.34,2.03E+07
294.38,2.46E+07
294.42,2.87E+07
294.46,3.24E+07
294.51,3.57E+07
294.55,3.71E+07
294.59,3.72E+07
294.63,3.60E+07
294.68,3.29E+07
294.72,2.95E+07
294.76,2.56E+07
294.8,2.17E+07
294.85,1.72E+07
294.89,1.40E+07
294.93,1.15E+07
294.97,9.60E+06
295.02,7.94E+06
295.06,7.05E+06
295.1,6.41E+06
295.14,5.91E+06
295.19,5.32E+06
295.23,4.82E+06
295.27,4.28E+06
295.31,3.72E+06
295.36,3.05E+06
295.4,2.57E+06
295.44,2.21E+06
295.48,2.00E+06
295.53,2.00E+06
295.57,2.23E+06
295.61,2.66E+06
295.65,3.28E+06
295.7,4.29E+06
295.74,5.20E+06
295.78,6.14E+06
295.82,7.01E+06
295.87,7.89E+06
295.91,8.33E+06
295.95,8.48E+06
295.99,8.32E+06
296.04,7.73E+06
296.08,6.99E+06
296.12,6.09E+06
296.16,5.12E+06
296.21,3.92E+06
296.25,3.03E+06
296.29,2.26E+06
296.33,1.63E+06
296.38,1.03E+06
296.42,6.82E+05
296.46,4.38E+05
296.51,2.45E+05
296.55,1.57E+05
296.59,1.14E+05
296.63,1.09E+05
296.68,1.56E+05
296.72,2.45E+05
296.76,3.95E+05
296.8,6.27E+05
296.85,1.07E+06
296.89,1.58E+06
296.93,2.25E+06
296.97,3.10E+06
297.02,4.39E+06
297.06,5.58E+06
297.1,6.85E+06
297.14,8.15E+06
297.19,9.68E+06
297.23,1.08E+07
297.27,1.17E+07
297.31,1.24E+07
297.36,1.31E+07
297.4,1.36E+07
297.44,1.42E+07
297.48,1.48E+07
297.53,1.59E+07
297.57,1.69E+07
297.61,1.80E+07
297.65,1.92E+07
297.7,2.04E+07
297.74,2.12E+07
297.78,2.16E+07
297.82,2.16E+07
297.87,2.11E+07
297.91,2.04E+07
297.95,1.94E+07
297.99,1.84E+07
298.04,1.71E+07
298.08,1.61E+07
298.12,1.52E+07
298.16,1.44E+07
298.21,1.35E+07
298.25,1.30E+07
298.29,1.26E+07
298.33,1.26E+07
298.38,1.32E+07
298.42,1.44E+07
298.46,1.65E+07
298.5,1.95E+07
298.55,2.46E+07
298.59,2.98E+07
298.63,3.56E+07
298.67,4.17E+07
298.72,4.93E+07
298.76,5.46E+07
298.8,5.89E+07
298.84,6.17E+07
298.89,6.27E+07
298.93,6.15E+07
298.97,5.85E+07
299.01,5.40E+07
299.06,4.69E+07
299.1,4.05E+07
299.14,3.39E+07
299.18,2.75E+07
299.23,2.03E+07
299.27,1.53E+07
299.31,1.13E+07
299.35,8.03E+06
299.4,5.12E+06
299.44,3.56E+06
299.48,2.58E+06
299.52,2.10E+06
299.57,2.12E+06
299.61,2.57E+06
299.65,3.41E+06
299.69,4.63E+06
299.74,6.68E+06
299.78,8.70E+06
299.82,1.10E+07
299.86,1.34E+07
299.91,1.64E+07
299.95,1.86E+07
299.99,2.03E+07
300.03,2.15E+07
300.08,2.20E+07
300.12,2.16E+07
300.16,2.04E+07
300.2,1.88E+07
300.25,1.61E+07
300.29,1.38E+07
300.33,1.16E+07
300.37,9.48E+06
300.42,7.33E+06
300.46,6.04E+06
300.5,5.14E+06
300.54,4.60E+06
300.59,4.31E+06
300.63,4.31E+06
300.67,4.43E+06
300.71,4.59E+06
300.76,4.81E+06
300.8,4.99E+06
300.84,5.18E+06
300.88,5.45E+06
300.93,6.00E+06
300.97,6.69E+06
301.01,7.65E+06
301.05,8.93E+06
301.1,1.09E+07
301.14,1.28E+07
301.18,1.47E+07
301.22,1.66E+07
301.27,1.86E+07
301.31,2.00E+07
301.35,2.08E+07
301.39,2.13E+07
301.44,2.12E+07
301.48,2.08E+07
301.52,2.00E+07
301.56,1.90E+07
301.61,1.75E+07
301.65,1.61E+07
301.69,1.46E+07
301.73,1.31E+07
301.78,1.12E+07
301.82,9.65E+06
301.86,8.21E+06
301.9,6.94E+06
301.95,5.70E+06
301.99,5.09E+06
302.03,4.90E+06
302.07,5.19E+06
302.12,6.28E+06
302.16,7.74E+06
302.2,9.69E+06
302.24,1.20E+07
302.29,1.53E+07
302.33,1.80E+07
302.37,2.04E+07
302.41,2.25E+07
302.46,2.41E+07
302.5,2.45E+07
302.54,2.41E+07
302.58,2.29E+07
302.63,2.04E+07
302.67,1.79E+07
302.71,1.51E+07
302.75,1.24E+07
302.8,9.18E+06
302.84,6.95E+06
302.88,5.10E+06
302.92,3.64E+06
302.97,2.34E+06
303.01,1.69E+06
303.05,1.33E+06
303.1,1.27E+06
303.14,1.51E+06
303.18,2.00E+06
303.22,2.77E+06
303.27,4.12E+06
303.31,5.50E+06
303.35,7.13E+06
303.39,8.96E+06
303.44,1.14E+07
303.48,1.33E+07
303.52,1.50E+07
303.56,1.66E+07
303.61,1.81E+07
303.65,1.90E+07
303.69,1.98E+07
303.73,2.06E+07
303.78,2.19E+07
303.82,2.35E+07
303.86,2.57E+07
303.9,2.85E+07
303.95,3.28E+07
303.99,3.67E+07
304.03,4.05E+07
304.07,4.39E+07
304.12,4.70E+07
304.16,4.84E+07
304.2,4.87E+07
304.24,4.79E+07
304.29,4.60E+07
304.33,4.41E+07
304.37,4.24E+07
304.41,4.12E+07
304.46,4.07E+07
304.5,4.13E+07
304.54,4.25E+07
304.58,4.41E+07
304.63,4.59E+07
304.67,4.66E+07
304.71,4.65E+07
304.75,4.52E+07
304.8,4.20E+07
304.84,3.83E+07
304.88,3.39E+07
304.92,2.91E+07
304.97,2.32E+07
305.01,1.90E+07
305.05,1.54E+07
305.09,1.28E+07
