Wavelength,Spectra,,,
170.11,1.88E-27,,,
170.15,2.28E-27,,,
170.19,2.48E-27,,,
170.23,2.41E-27,,,
170.28,1.99E-27,,,
170.32,1.51E-27,,,
170.36,1.03E-27,,,
170.4,6.25E-28,,,
170.45,2.88E-28,,,
170.49,1.36E-28,,,
170.53,5.80E-29,,,
170.57,2.21E-29,,,
170.62,6.17E-30,,,
170.66,3.59E-30,,,
170.7,6.67E-30,,,
170.74,1.82E-29,,,
170.79,5.94E-29,,,
170.83,1.36E-28,,,
170.87,2.80E-28,,,
170.91,5.21E-28,,,
170.96,9.83E-28,,,
171,1.46E-27,,,
171.04,1.99E-27,,,
171.08,2.47E-27,,,
171.13,2.89E-27,,,
171.17,3.00E-27,,,
171.21,2.90E-27,,,
171.25,2.61E-27,,,
171.3,2.05E-27,,,
171.34,1.55E-27,,,
171.38,1.07E-27,,,
171.42,6.78E-28,,,
171.47,3.35E-28,,,
171.51,1.71E-28,,,
171.55,8.02E-29,,,
171.59,3.88E-29,,,
171.64,3.02E-29,,,
171.68,5.03E-29,,,
171.72,9.64E-29,,,
171.76,1.74E-28,,,
171.81,3.13E-28,,,
171.85,4.45E-28,,,
171.89,5.68E-28,,,
171.93,6.50E-28,,,
171.98,6.61E-28,,,
172.02,5.93E-28,,,
172.06,4.78E-28,,,
172.1,3.45E-28,,,
172.15,1.98E-28,,,
172.19,1.12E-28,,,
172.23,5.70E-29,,,
172.27,2.61E-29,,,
172.32,8.80E-30,,,
172.36,4.60E-30,,,
172.4,6.31E-30,,,
172.44,1.63E-29,,,
172.49,5.45E-29,,,
172.53,1.28E-28,,,
172.57,2.72E-28,,,
172.61,5.17E-28,,,
172.66,9.94E-28,,,
172.7,1.49E-27,,,
172.74,2.01E-27,,,
172.78,2.46E-27,,,
172.83,2.78E-27,,,
172.87,2.81E-27,,,
172.91,2.71E-27,,,
172.95,2.59E-27,,,
173,2.53E-27,,,
173.04,2.56E-27,,,
173.08,2.56E-27,,,
173.12,2.46E-27,,,
173.17,2.10E-27,,,
173.21,1.67E-27,,,
173.25,1.21E-27,,,
173.29,7.86E-28,,,
173.34,3.97E-28,,,
173.38,2.07E-28,,,
173.42,1.06E-28,,,
173.46,6.82E-29,,,
173.51,8.69E-29,,,
173.55,1.47E-28,,,
173.59,2.44E-28,,,
173.63,3.72E-28,,,
173.68,5.44E-28,,,
173.72,6.55E-28,,,
173.76,7.09E-28,,,
173.8,6.90E-28,,,
173.85,5.76E-28,,,
173.89,4.42E-28,,,
173.93,3.05E-28,,,
173.97,1.89E-28,,,
174.02,8.98E-29,,,
174.06,4.39E-29,,,
174.1,1.93E-29,,,
174.14,7.64E-30,,,
174.19,2.07E-30,,,
174.23,6.44E-31,,,
174.27,1.81E-31,,,
174.31,4.55E-32,,,
174.36,7.01E-33,,,
174.4,1.39E-33,,,
174.44,2.49E-34,,,
174.48,4.00E-35,,,
174.53,3.51E-36,,,
174.57,4.44E-37,,,
174.61,5.06E-38,,,
174.65,5.18E-39,,,
174.7,2.59E-40,,,
174.74,2.09E-41,,,
174.78,1.52E-42,,,
174.82,9.90E-44,,,
182.44,1.09E-43,,,
182.48,1.35E-42,,,
182.52,1.53E-41,,,
182.56,1.57E-40,,,
182.61,2.51E-39,,,
182.65,2.08E-38,,,
182.69,1.57E-37,,,
182.73,1.07E-36,,,
182.78,1.04E-35,,,
182.82,5.75E-35,,,
182.86,2.89E-34,,,
182.9,1.32E-33,,,
182.95,7.74E-33,,,
182.99,2.86E-32,,,
183.03,9.60E-32,,,
183.07,2.93E-31,,,
183.12,1.04E-30,,,
183.16,2.56E-30,,,
183.2,5.75E-30,,,
183.24,1.18E-29,,,
183.29,2.53E-29,,,
183.33,4.24E-29,,,
183.37,6.54E-29,,,
183.41,9.45E-29,,,
183.46,1.41E-28,,,
183.5,1.91E-28,,,
183.54,2.64E-28,,,
183.58,3.72E-28,,,
183.63,5.74E-28,,,
183.67,7.84E-28,,,
183.71,1.01E-27,,,
183.75,1.21E-27,,,
183.8,1.36E-27,,,
183.84,1.34E-27,,,
183.88,1.22E-27,,,
183.92,1.01E-27,,,
183.97,7.18E-28,,,
184.01,5.15E-28,,,
184.05,3.94E-28,,,
184.09,4.03E-28,,,
184.14,6.87E-28,,,
184.18,1.23E-27,,,
184.22,2.13E-27,,,
184.26,3.43E-27,,,
184.31,5.49E-27,,,
184.35,7.21E-27,,,
184.39,8.65E-27,,,
184.43,9.48E-27,,,
184.48,9.36E-27,,,
184.52,8.42E-27,,,
184.56,7.04E-27,,,
184.6,5.67E-27,,,
184.65,4.73E-27,,,
184.69,5.14E-27,,,
184.73,6.97E-27,,,
184.77,1.04E-26,,,
184.82,1.65E-26,,,
184.86,2.22E-26,,,
184.9,2.74E-26,,,
184.94,3.11E-26,,,
184.99,3.21E-26,,,
185.03,2.99E-26,,,
185.07,2.55E-26,,,
185.11,2.00E-26,,,
185.16,1.31E-26,,,
185.2,8.51E-27,,,
185.24,5.20E-27,,,
185.28,3.18E-27,,,
185.33,2.24E-27,,,
185.37,2.58E-27,,,
185.41,3.78E-27,,,
185.45,5.74E-27,,,
185.5,8.94E-27,,,
185.54,1.17E-26,,,
185.58,1.41E-26,,,
185.62,1.56E-26,,,
185.67,1.56E-26,,,
185.71,1.43E-26,,,
185.75,1.20E-26,,,
185.79,9.30E-27,,,
185.84,6.21E-27,,,
185.88,4.41E-27,,,
185.92,3.39E-27,,,
185.96,3.07E-27,,,
186.01,3.35E-27,,,
186.05,3.78E-27,,,
186.09,4.10E-27,,,
186.13,4.15E-27,,,
186.18,3.73E-27,,,
186.22,3.10E-27,,,
186.26,2.35E-27,,,
186.3,1.62E-27,,,
186.35,8.97E-28,,,
186.39,5.04E-28,,,
186.43,2.58E-28,,,
186.47,1.22E-28,,,
186.52,4.44E-29,,,
186.56,2.14E-29,,,
186.6,1.41E-29,,,
186.64,1.35E-29,,,
186.69,1.54E-29,,,
186.73,1.66E-29,,,
186.77,1.65E-29,,,
186.81,1.51E-29,,,
186.86,1.18E-29,,,
186.9,8.75E-30,,,
186.94,5.93E-30,,,
186.98,3.66E-30,,,
187.03,1.76E-30,,,
187.07,8.86E-31,,,
187.11,4.06E-31,,,
187.15,1.70E-31,,,
187.2,5.02E-32,,,
187.24,1.71E-32,,,
187.28,5.30E-33,,,
187.32,1.50E-33,,,
187.37,2.73E-34,,,
187.41,6.28E-35,,,
187.45,1.32E-35,,,
187.49,2.53E-36,,,
187.54,2.82E-37,,,
187.58,4.40E-38,,,
187.62,6.27E-39,,,
187.66,8.14E-40,,,
187.71,6.02E-41,,,
187.75,4.96E-41,,,
187.79,3.96E-40,,,
187.83,3.26E-39,,,
187.88,4.02E-38,,,
187.92,2.71E-37,,,
187.96,1.67E-36,,,
188,9.42E-36,,,
188.05,7.21E-35,,,
188.09,3.32E-34,,,
188.13,1.40E-33,,,
188.17,5.38E-33,,,
188.22,2.55E-32,,,
188.26,8.02E-32,,,
188.3,2.31E-31,,,
188.34,6.06E-31,,,
188.39,1.78E-30,,,
188.43,3.83E-30,,,
188.47,7.51E-30,,,
188.51,1.35E-29,,,
188.56,2.46E-29,,,
188.6,3.61E-29,,,
188.64,4.83E-29,,,
188.69,6.13E-29,,,
188.73,6.71E-29,,,
188.77,6.71E-29,,,
188.81,6.13E-29,,,
188.86,4.83E-29,,,
188.9,3.61E-29,,,
188.94,2.46E-29,,,
188.98,1.54E-29,,,
189.03,7.51E-30,,,
189.07,3.83E-30,,,
189.11,1.78E-30,,,
189.15,7.60E-31,,,
189.2,2.31E-31,,,
189.24,8.02E-32,,,
189.28,2.55E-32,,,
189.32,7.42E-33,,,
189.37,1.40E-33,,,
189.41,3.32E-34,,,
189.45,7.21E-35,,,
189.49,1.43E-35,,,
189.54,1.67E-36,,,
189.58,2.71E-37,,,
189.62,4.03E-38,,,
189.66,6.20E-39,,,
189.71,1.26E-38,,,
189.75,1.04E-37,,,
189.79,8.04E-37,,,
189.83,5.71E-36,,,
189.88,5.86E-35,,,
189.92,3.42E-34,,,
189.96,1.83E-33,,,
190,8.95E-33,,,
190.05,5.76E-32,,,
190.09,2.32E-31,,,
190.13,8.52E-31,,,
190.17,2.87E-30,,,
190.22,1.16E-29,,,
190.26,3.21E-29,,,
190.3,8.15E-29,,,
190.34,1.89E-28,,,
190.39,4.79E-28,,,
190.43,9.14E-28,,,
190.47,1.60E-27,,,
190.51,2.55E-27,,,
190.56,4.06E-27,,,
190.6,5.33E-27,,,
190.64,6.41E-27,,,
190.68,7.06E-27,,,
190.73,7.04E-27,,,
190.77,6.36E-27,,,
190.81,5.27E-27,,,
190.85,4.00E-27,,,
190.9,2.52E-27,,,
190.94,1.59E-27,,,
190.98,9.58E-28,,,
191.02,6.05E-28,,,
191.07,4.82E-28,,,
191.11,5.74E-28,,,
191.15,7.82E-28,,,
191.19,1.05E-27,,,
191.24,1.40E-27,,,
191.28,1.60E-27,,,
191.32,1.68E-27,,,
191.36,1.65E-27,,,
191.41,1.51E-27,,,
191.45,1.41E-27,,,
191.49,1.41E-27,,,
191.53,1.59E-27,,,
191.58,2.12E-27,,,
191.62,2.74E-27,,,
191.66,3.44E-27,,,
191.7,4.10E-27,,,
191.75,4.66E-27,,,
191.79,4.78E-27,,,
191.83,4.57E-27,,,
191.87,4.08E-27,,,
191.92,3.21E-27,,,
191.96,2.44E-27,,,
192,1.72E-27,,,
192.04,1.13E-27,,,
192.09,6.09E-28,,,
192.13,3.62E-28,,,
192.17,2.61E-28,,,
192.21,3.22E-28,,,
192.26,7.38E-28,,,
192.3,1.53E-27,,,
192.34,2.99E-27,,,
192.38,5.40E-27,,,
192.43,1.00E-26,,,
192.47,1.50E-26,,,
192.51,2.06E-26,,,
192.55,2.60E-26,,,
192.6,3.11E-26,,,
192.64,3.27E-26,,,
192.68,3.16E-26,,,
192.72,2.83E-26,,,
192.77,2.20E-26,,,
192.81,1.64E-26,,,
192.85,1.14E-26,,,
192.89,7.45E-27,,,
192.94,4.27E-27,,,
192.98,3.11E-27,,,
193.02,3.06E-27,,,
193.06,4.02E-27,,,
193.11,6.50E-27,,,
193.15,9.34E-27,,,
193.19,1.27E-26,,,
193.23,1.61E-26,,,
193.28,1.97E-26,,,
193.32,2.14E-26,,,
193.36,2.17E-26,,,
193.4,2.05E-26,,,
193.45,1.73E-26,,,
193.49,1.38E-26,,,
193.53,1.03E-26,,,
193.57,7.06E-27,,,
193.62,3.95E-27,,,
193.66,2.27E-27,,,
193.7,1.21E-27,,,
193.74,5.91E-28,,,
193.79,2.19E-28,,,
193.83,9.29E-29,,,
193.87,3.90E-29,,,
193.91,1.76E-29,,,
193.96,7.97E-30,,,
194,4.93E-30,,,
194.04,3.22E-30,,,
194.08,2.13E-30,,,
194.13,1.57E-30,,,
194.17,2.09E-30,,,
194.21,4.24E-30,,,
194.25,9.56E-30,,,
194.3,2.48E-29,,,
194.34,4.87E-29,,,
194.38,8.83E-29,,,
194.42,1.48E-28,,,
194.47,2.56E-28,,,
194.51,3.81E-28,,,
194.55,5.82E-28,,,
194.59,9.96E-28,,,
194.64,2.43E-27,,,
194.68,5.51E-27,,,
194.72,1.25E-26,,,
194.76,2.72E-26,,,
194.81,6.50E-26,,,
194.85,1.19E-25,,,
194.89,2.02E-25,,,
194.93,3.13E-25,,,
194.98,4.83E-25,,,
195.02,6.22E-25,,,
195.06,7.35E-25,,,
195.1,8.00E-25,,,
195.15,7.89E-25,,,
195.19,7.11E-25,,,
195.23,5.88E-25,,,
195.27,4.47E-25,,,
195.32,2.83E-25,,,
195.36,1.78E-25,,,
195.4,1.03E-25,,,
195.45,4.63E-26,,,
195.49,2.22E-26,,,
195.53,9.77E-27,,,
195.57,3.96E-27,,,
195.62,1.14E-27,,,
195.66,3.81E-28,,,
195.7,1.18E-28,,,
195.74,3.33E-29,,,
195.79,6.12E-30,,,
195.83,1.44E-30,,,
195.87,3.10E-31,,,
195.91,6.14E-32,,,
195.96,7.22E-33,,,
196,1.19E-33,,,
196.04,1.79E-34,,,
196.08,2.48E-35,,,
196.13,1.87E-36,,,
196.17,2.14E-37,,,
196.21,2.26E-38,,,
196.25,2.20E-39,,,
196.3,1.39E-40,,,
196.34,2.94E-40,,,
196.38,2.38E-39,,,
196.42,1.78E-38,,,
196.47,1.97E-37,,,
196.51,1.22E-36,,,
196.55,7.01E-36,,,
196.59,3.70E-35,,,
196.64,2.63E-34,,,
196.68,1.16E-33,,,
196.72,4.67E-33,,,
196.76,1.74E-32,,,
196.81,8.01E-32,,,
196.85,2.48E-31,,,
196.89,7.06E-31,,,
196.93,1.85E-30,,,
196.98,5.52E-30,,,
197.02,1.21E-29,,,
197.06,2.42E-29,,,
197.1,4.49E-29,,,
197.15,8.64E-29,,,
197.19,1.33E-28,,,
197.23,1.89E-28,,,
197.27,2.46E-28,,,
197.32,3.07E-28,,,
197.36,3.33E-28,,,
197.4,3.34E-28,,,
197.44,3.08E-28,,,
197.49,2.48E-28,,,
197.53,1.91E-28,,,
197.57,1.36E-28,,,
197.61,9.00E-29,,,
197.66,4.90E-29,,,
197.7,2.85E-29,,,
197.74,1.62E-29,,,
197.78,9.37E-30,,,
197.83,5.59E-30,,,
197.87,6.27E-30,,,
197.91,1.48E-29,,,
197.95,4.75E-29,,,
198,2.05E-28,,,
198.04,6.13E-28,,,
198.08,1.69E-27,,,
198.12,4.30E-27,,,
198.17,1.23E-26,,,
198.21,2.61E-26,,,
198.25,5.10E-26,,,
198.29,9.18E-26,,,
198.34,1.71E-25,,,
198.38,2.56E-25,,,
198.42,3.55E-25,,,
198.46,4.53E-25,,,
198.51,5.47E-25,,,
198.55,5.82E-25,,,
198.59,5.70E-25,,,
198.63,5.15E-25,,,
198.68,4.05E-25,,,
198.72,3.05E-25,,,
198.76,2.11E-25,,,
198.8,1.35E-25,,,
198.85,6.91E-26,,,
198.89,3.68E-26,,,
198.93,1.81E-26,,,
198.97,8.21E-27,,,
199.02,2.72E-27,,,
199.06,1.03E-27,,,
199.1,3.62E-28,,,
199.14,1.26E-28,,,
199.19,5.58E-29,,,
199.23,7.06E-29,,,
199.27,1.23E-28,,,
199.31,2.14E-28,,,
199.36,3.85E-28,,,
199.4,5.64E-28,,,
199.44,7.63E-28,,,
199.48,9.51E-28,,,
199.53,1.12E-27,,,
199.57,1.17E-27,,,
199.61,1.12E-27,,,
199.65,9.93E-28,,,
199.7,7.63E-28,,,
199.74,5.64E-28,,,
199.78,3.86E-28,,,
199.82,2.45E-28,,,
199.87,1.31E-28,,,
199.91,9.60E-29,,,
199.95,1.33E-28,,,
199.99,3.16E-28,,,
200.04,1.06E-27,,,
200.08,2.61E-27,,,
200.12,5.98E-27,,,
200.16,1.27E-26,,,
200.21,2.90E-26,,,
200.25,5.15E-26,,,
200.29,8.45E-26,,,
200.33,1.28E-25,,,
200.38,1.93E-25,,,
200.42,2.45E-25,,,
200.46,2.87E-25,,,
200.5,3.10E-25,,,
200.55,3.06E-25,,,
200.59,2.77E-25,,,
200.63,2.32E-25,,,
200.67,1.80E-25,,,
200.72,1.17E-25,,,
200.76,7.64E-26,,,
200.8,4.66E-26,,,
200.84,2.70E-26,,,
200.89,1.36E-26,,,
200.93,8.80E-27,,,
200.97,7.20E-27,,,
201.01,7.49E-27,,,
201.06,9.19E-27,,,
201.1,1.08E-26,,,
201.14,1.22E-26,,,
201.18,1.28E-26,,,
201.23,1.23E-26,,,
201.27,1.09E-26,,,
201.31,8.98E-27,,,
201.35,6.86E-27,,,
201.4,4.42E-27,,,
201.44,2.89E-27,,,
201.48,1.79E-27,,,
201.52,1.07E-27,,,
201.57,5.92E-28,,,
201.61,4.10E-28,,,
201.65,3.23E-28,,,
201.69,2.81E-28,,,
201.74,2.44E-28,,,
201.78,2.14E-28,,,
201.82,1.84E-28,,,
201.86,1.65E-28,,,
201.91,1.74E-28,,,
201.95,2.24E-28,,,
201.99,3.23E-28,,,
202.03,4.78E-28,,,
202.08,7.40E-28,,,
202.12,9.79E-28,,,
202.16,1.21E-27,,,
202.21,1.42E-27,,,
202.25,1.49E-27,,,
202.29,1.46E-27,,,
202.33,1.34E-27,,,
202.38,1.09E-27,,,
202.42,8.84E-28,,,
202.46,7.23E-28,,,
202.5,6.61E-28,,,
202.55,8.04E-28,,,
202.59,1.15E-27,,,
202.63,1.74E-27,,,
202.67,2.56E-27,,,
202.72,3.83E-27,,,
202.76,4.90E-27,,,
202.8,5.89E-27,,,
202.84,6.64E-27,,,
202.89,7.16E-27,,,
202.93,7.24E-27,,,
202.97,7.10E-27,,,
203.01,6.80E-27,,,
203.06,6.28E-27,,,
203.1,5.74E-27,,,
203.14,5.08E-27,,,
203.18,4.33E-27,,,
203.23,3.33E-27,,,
203.27,2.60E-27,,,
203.31,2.02E-27,,,
203.35,1.67E-27,,,
203.4,1.57E-27,,,
203.44,1.73E-27,,,
203.48,2.02E-27,,,
203.52,2.35E-27,,,
203.57,2.69E-27,,,
203.61,2.83E-27,,,
203.65,2.82E-27,,,
203.69,2.67E-27,,,
203.74,2.36E-27,,,
203.78,2.07E-27,,,
203.82,1.82E-27,,,
203.86,1.67E-27,,,
203.91,1.74E-27,,,
203.95,2.11E-27,,,
203.99,2.85E-27,,,
204.03,4.01E-27,,,
204.08,6.07E-27,,,
204.12,8.16E-27,,,
204.16,1.05E-26,,,
204.2,1.28E-26,,,
204.25,1.52E-26,,,
204.29,1.63E-26,,,
204.33,1.66E-26,,,
204.37,1.59E-26,,,
204.42,1.39E-26,,,
204.46,1.18E-26,,,
204.5,9.54E-27,,,
204.54,7.41E-27,,,
204.59,5.16E-27,,,
204.63,3.77E-27,,,
204.67,2.72E-27,,,
204.71,1.98E-27,,,
204.76,1.38E-27,,,
204.8,1.10E-27,,,
204.84,9.16E-28,,,
204.88,7.90E-28,,,
204.93,6.64E-28,,,
204.97,5.69E-28,,,
205.01,4.78E-28,,,
205.05,3.96E-28,,,
205.1,3.16E-28,,,
205.14,2.75E-28,,,
205.18,2.57E-28,,,
205.22,2.66E-28,,,
205.27,3.23E-28,,,
205.31,4.07E-28,,,
205.35,5.23E-28,,,
205.39,6.57E-28,,,
205.44,8.18E-28,,,
205.48,9.11E-28,,,
205.52,9.54E-28,,,
205.56,9.40E-28,,,
205.61,8.66E-28,,,
205.65,7.93E-28,,,
205.69,7.42E-28,,,
205.73,7.38E-28,,,
205.78,8.17E-28,,,
205.82,9.42E-28,,,
205.86,1.10E-27,,,
205.9,1.27E-27,,,
205.95,1.43E-27,,,
205.99,1.50E-27,,,
206.03,1.48E-27,,,
206.07,1.39E-27,,,
206.12,1.18E-27,,,
206.16,1.01E-27,,,
206.2,8.91E-28,,,
206.24,9.32E-28,,,
206.29,1.40E-27,,,
206.33,2.33E-27,,,
206.37,3.96E-27,,,
206.41,6.46E-27,,,
206.46,1.09E-26,,,
206.5,1.52E-26,,,
206.54,1.98E-26,,,
206.58,2.39E-26,,,
206.63,2.72E-26,,,
206.67,2.77E-26,,,
206.71,2.62E-26,,,
206.75,2.30E-26,,,
206.8,1.76E-26,,,
206.84,1.31E-26,,,
206.88,9.05E-27,,,
206.92,5.87E-27,,,
206.97,3.23E-27,,,
207.01,2.07E-27,,,
207.05,1.55E-27,,,
207.09,1.46E-27,,,
207.14,1.69E-27,,,
207.18,1.97E-27,,,
207.22,2.21E-27,,,
207.26,2.32E-27,,,
207.31,2.24E-27,,,
207.35,2.00E-27,,,
207.39,1.66E-27,,,
207.43,1.28E-27,,,
207.48,8.31E-28,,,
207.52,5.41E-28,,,
207.56,3.28E-28,,,
207.6,1.84E-28,,,
207.65,8.05E-29,,,
207.69,3.82E-29,,,
207.73,1.68E-29,,,
207.77,6.89E-30,,,
207.82,2.03E-30,,,
207.86,7.02E-31,,,
207.9,2.25E-31,,,
207.94,6.72E-32,,,
207.99,1.33E-32,,,
208.03,3.36E-33,,,
208.07,7.86E-34,,,
208.11,1.71E-34,,,
208.16,2.28E-35,,,
208.2,4.19E-36,,,
208.24,7.14E-37,,,
208.28,1.13E-37,,,
208.33,1.02E-38,,,
208.37,1.36E-39,,,
208.41,1.69E-40,,,
208.45,1.95E-41,,,
208.5,1.18E-42,,,
208.71,2.78E-43,,,
208.75,2.60E-42,,,
208.8,3.84E-41,,,
208.84,3.04E-40,,,
208.88,2.24E-39,,,
208.92,1.53E-38,,,
208.97,1.54E-37,,,
209.01,8.95E-37,,,
209.05,4.85E-36,,,
209.09,2.44E-35,,,
209.14,1.66E-34,,,
209.18,7.13E-34,,,
209.22,2.84E-33,,,
209.26,1.05E-32,,,
209.31,4.89E-32,,,
209.35,1.54E-31,,,
209.39,4.52E-31,,,
209.43,1.24E-30,,,
209.48,3.92E-30,,,
209.52,9.11E-30,,,
209.56,1.97E-29,,,
209.6,3.98E-29,,,
209.65,8.66E-29,,,
209.69,1.49E-28,,,
209.73,2.40E-28,,,
209.77,3.62E-28,,,
209.82,5.53E-28,,,
209.86,7.27E-28,,,
209.9,9.10E-28,,,
209.94,1.10E-27,,,
209.99,1.34E-27,,,
210.03,1.56E-27,,,
210.07,1.81E-27,,,
210.11,2.10E-27,,,
210.16,2.48E-27,,,
210.2,2.75E-27,,,
210.24,2.92E-27,,,
210.28,2.93E-27,,,
210.33,2.71E-27,,,
210.37,2.37E-27,,,
210.41,1.94E-27,,,
210.45,1.48E-27,,,
210.5,9.52E-28,,,
210.54,6.21E-28,,,
210.58,3.78E-28,,,
210.62,2.16E-28,,,
210.67,9.86E-29,,,
210.71,5.07E-29,,,
210.75,2.67E-29,,,
210.79,1.60E-29,,,
210.84,1.17E-29,,,
210.88,1.15E-29,,,
210.92,1.24E-29,,,
210.96,1.39E-29,,,
211.01,1.66E-29,,,
211.05,1.99E-29,,,
211.09,2.47E-29,,,
211.13,3.15E-29,,,
211.18,4.50E-29,,,
211.22,6.37E-29,,,
211.26,9.65E-29,,,
211.3,1.55E-28,,,
211.35,2.87E-28,,,
211.39,4.62E-28,,,
211.43,7.12E-28,,,
211.47,1.04E-27,,,
211.52,1.52E-27,,,
211.56,1.92E-27,,,
211.6,2.25E-27,,,
211.64,2.45E-27,,,
211.69,2.48E-27,,,
211.73,2.31E-27,,,
211.77,2.00E-27,,,
211.81,1.62E-27,,,
211.86,1.12E-27,,,
211.9,7.74E-28,,,
211.94,5.00E-28,,,
211.98,3.04E-28,,,
212.03,1.52E-28,,,
212.07,8.61E-29,,,
212.11,5.20E-29,,,
212.15,3.86E-29,,,
212.2,4.24E-29,,,
212.24,6.15E-29,,,
212.28,9.92E-29,,,
212.32,1.63E-28,,,
212.37,2.93E-28,,,
212.41,4.46E-28,,,
212.45,6.44E-28,,,
212.49,8.77E-28,,,
212.54,1.18E-27,,,
212.58,1.39E-27,,,
212.62,1.53E-27,,,
212.66,1.58E-27,,,
212.71,1.49E-27,,,
212.75,1.31E-27,,,
212.79,1.08E-27,,,
212.83,8.25E-28,,,
212.88,5.36E-28,,,
212.92,3.50E-28,,,
212.96,2.13E-28,,,
213,1.21E-28,,,
213.05,5.40E-29,,,
213.09,2.61E-29,,,
213.13,1.18E-29,,,
213.17,4.96E-30,,,
213.22,1.53E-30,,,
213.26,5.73E-31,,,
213.3,2.97E-31,,,
213.34,4.85E-31,,,
213.39,2.01E-30,,,
213.43,6.35E-30,,,
213.47,1.88E-29,,,
213.51,5.17E-29,,,
213.56,1.67E-28,,,
213.6,3.93E-28,,,
213.64,8.64E-28,,,
213.68,1.77E-27,,,
213.73,3.94E-27,,,
213.77,6.92E-27,,,
213.81,1.13E-26,,,
213.85,1.73E-26,,,
213.9,2.66E-26,,,
213.94,3.47E-26,,,
213.98,4.24E-26,,,
214.02,4.84E-26,,,
214.07,5.22E-26,,,
214.11,5.19E-26,,,
214.15,4.93E-26,,,
214.19,4.52E-26,,,
214.24,4.02E-26,,,
214.28,3.74E-26,,,
214.32,3.61E-26,,,
214.36,3.59E-26,,,
214.41,3.60E-26,,,
214.45,3.52E-26,,,
214.49,3.30E-26,,,
214.53,2.94E-26,,,
214.58,2.35E-26,,,
214.62,1.83E-26,,,
214.66,1.36E-26,,,
214.7,9.66E-27,,,
214.75,6.17E-27,,,
214.79,4.40E-27,,,
214.83,3.32E-27,,,
214.87,2.67E-27,,,
214.92,2.20E-27,,,
214.96,1.95E-27,,,
215,1.76E-27,,,
215.04,1.61E-27,,,
215.09,1.46E-27,,,
215.13,1.35E-27,,,
215.17,1.24E-27,,,
215.21,1.11E-27,,,
215.26,9.12E-28,,,
215.3,7.35E-28,,,
215.34,5.59E-28,,,
215.38,3.99E-28,,,
215.43,2.39E-28,,,
215.47,1.47E-28,,,
215.51,8.53E-29,,,
215.56,4.06E-29,,,
215.6,2.30E-29,,,
215.64,1.55E-29,,,
215.68,1.43E-29,,,
215.73,1.76E-29,,,
215.77,2.21E-29,,,
215.81,2.67E-29,,,
215.85,3.06E-29,,,
215.9,3.29E-29,,,
215.94,3.23E-29,,,
215.98,2.97E-29,,,
216.02,2.54E-29,,,
216.07,1.90E-29,,,
216.11,1.40E-29,,,
216.15,9.58E-30,,,
216.19,6.13E-30,,,
216.24,3.19E-30,,,
216.28,1.75E-30,,,
216.32,8.95E-31,,,
216.36,4.28E-31,,,
216.41,1.55E-31,,,
216.45,6.33E-32,,,
216.49,2.42E-32,,,
216.53,8.67E-33,,,
216.58,2.30E-33,,,
216.62,1.23E-33,,,
216.66,2.43E-33,,,
216.7,8.29E-33,,,
216.75,3.82E-32,,,
216.79,1.21E-31,,,
216.83,3.56E-31,,,
216.87,9.83E-31,,,
216.92,3.18E-30,,,
216.96,7.54E-30,,,
217,1.67E-29,,,
217.04,3.46E-29,,,
217.09,7.80E-29,,,
217.13,1.39E-28,,,
217.17,2.30E-28,,,
217.21,3.58E-28,,,
217.26,5.63E-28,,,
217.3,7.51E-28,,,
217.34,9.36E-28,,,
217.38,1.09E-27,,,
217.43,1.20E-27,,,
217.47,1.20E-27,,,
217.51,1.12E-27,,,
217.55,9.78E-28,,,
217.6,7.51E-28,,,
217.64,5.63E-28,,,
217.68,3.95E-28,,,
217.72,2.59E-28,,,
217.77,1.39E-28,,,
217.81,7.80E-29,,,
217.85,4.10E-29,,,
217.89,2.02E-29,,,
217.94,7.56E-30,,,
217.98,3.24E-30,,,
218.02,1.41E-30,,,
218.06,8.23E-31,,,
218.11,1.05E-30,,,
218.15,1.88E-30,,,
218.19,3.43E-30,,,
218.23,5.92E-30,,,
218.28,1.07E-29,,,
218.32,1.60E-29,,,
218.36,2.23E-29,,,
218.4,2.91E-29,,,
218.45,3.70E-29,,,
218.49,4.17E-29,,,
218.53,4.40E-29,,,
218.57,4.39E-29,,,
218.62,4.07E-29,,,
218.66,3.72E-29,,,
218.7,3.42E-29,,,
218.74,3.32E-29,,,
218.79,3.61E-29,,,
218.83,4.21E-29,,,
218.87,5.03E-29,,,
218.91,5.95E-29,,,
218.96,6.91E-29,,,
219,7.32E-29,,,
219.04,7.29E-29,,,
219.08,6.81E-29,,,
219.13,5.70E-29,,,
219.17,4.59E-29,,,
219.21,3.45E-29,,,
219.25,2.43E-29,,,
219.3,1.43E-29,,,
219.34,8.68E-30,,,
219.38,4.96E-30,,,
219.42,2.78E-30,,,
219.47,2.02E-30,,,
219.51,3.97E-30,,,
219.55,1.22E-29,,,
219.59,3.87E-29,,,
219.64,1.52E-28,,,
219.68,4.23E-28,,,
219.72,1.10E-27,,,
219.76,2.68E-27,,,
219.81,7.43E-27,,,
219.85,1.56E-26,,,
219.89,3.07E-26,,,
219.93,5.65E-26,,,
219.98,1.10E-25,,,
220.02,1.75E-25,,,
220.06,2.60E-25,,,
220.1,3.62E-25,,,
220.15,4.98E-25,,,
220.19,5.96E-25,,,
220.23,6.69E-25,,,
220.27,7.03E-25,,,
220.32,6.82E-25,,,
220.36,6.18E-25,,,
220.4,5.24E-25,,,
220.44,4.16E-25,,,
220.49,2.84E-25,,,
220.53,1.95E-25,,,
