Wavelength,Spectra,,,
176.44,5.53E-06,,,
176.48,7.56E-05,,,
176.53,1.72E-03,,,
176.57,1.88E-02,,,
176.61,1.84E-01,,,
176.65,1.64E+00,,,
176.7,2.18E+01,,,
176.74,1.54E+02,,,
176.78,9.82E+02,,,
176.82,5.66E+03,,,
176.87,4.39E+04,,,
176.91,2.01E+05,,,
176.95,8.34E+05,,,
176.99,3.12E+06,,,
177.04,1.41E+07,,,
177.08,4.21E+07,,,
177.12,1.13E+08,,,
177.16,2.75E+08,,,
177.21,7.25E+08,,,
177.25,1.40E+09,,,
177.29,2.45E+09,,,
177.33,3.87E+09,,,
177.38,5.95E+09,,,
177.42,7.47E+09,,,
177.46,8.48E+09,,,
177.5,8.70E+09,,,
177.55,7.79E+09,,,
177.59,6.36E+09,,,
177.63,4.69E+09,,,
177.67,3.12E+09,,,
177.72,1.63E+09,,,
177.76,8.64E+08,,,
177.8,4.18E+08,,,
177.84,1.92E+08,,,
177.89,1.03E+08,,,
177.93,1.43E+08,,,
177.97,2.91E+08,,,
178.01,5.94E+08,,,
178.06,1.28E+09,,,
178.1,2.12E+09,,,
178.14,3.17E+09,,,
178.18,4.28E+09,,,
178.23,5.42E+09,,,
178.27,5.85E+09,,,
178.31,5.71E+09,,,
178.35,5.05E+09,,,
178.4,3.78E+09,,,
178.44,2.74E+09,,,
178.48,1.92E+09,,,
178.52,1.45E+09,,,
178.57,1.37E+09,,,
178.61,1.65E+09,,,
178.65,2.11E+09,,,
178.69,2.57E+09,,,
178.74,2.93E+09,,,
178.78,2.93E+09,,,
178.82,2.65E+09,,,
178.86,2.16E+09,,,
178.91,1.46E+09,,,
178.95,9.56E+08,,,
178.99,5.65E+08,,,
179.03,3.02E+08,,,
179.08,1.20E+08,,,
179.12,5.13E+07,,,
179.16,1.98E+07,,,
179.2,6.92E+06,,,
179.25,1.62E+06,,,
179.29,4.51E+05,,,
179.33,1.14E+05,,,
179.37,2.60E+04,,,
179.42,3.56E+03,,,
179.46,6.49E+02,,,
179.5,1.07E+02,,,
179.54,1.60E+01,,,
179.59,1.29E+00,,,
179.63,1.53E-01,,,
179.67,1.65E-02,,,
179.71,1.61E-03,,,
179.76,7.61E-05,,,
179.8,5.92E-06,,,
179.84,4.17E-07,,,
184.77,4.06E-07,,,
184.82,1.03E-05,,,
184.86,1.17E-04,,,
184.9,1.23E-03,,,
184.94,1.17E-02,,,
184.99,1.72E-01,,,
185.03,1.34E+00,,,
185.07,9.45E+00,,,
185.11,6.10E+01,,,
185.16,5.53E+02,,,
185.2,2.91E+03,,,
185.24,1.40E+04,,,
185.28,6.14E+04,,,
185.33,3.44E+05,,,
185.37,1.23E+06,,,
185.41,4.03E+06,,,
185.45,1.20E+07,,,
185.5,4.17E+07,,,
185.54,1.02E+08,,,
185.58,2.27E+08,,,
185.62,4.64E+08,,,
185.67,1.00E+09,,,
185.71,1.67E+09,,,
185.75,2.55E+09,,,
185.79,3.56E+09,,,
185.84,4.77E+09,,,
185.88,5.45E+09,,,
185.92,5.70E+09,,,
185.96,5.44E+09,,,
186.01,4.54E+09,,,
186.05,3.54E+09,,,
186.09,2.53E+09,,,
186.13,1.65E+09,,,
186.18,8.56E+08,,,
186.22,4.56E+08,,,
186.26,2.22E+08,,,
186.3,9.90E+07,,,
186.35,3.17E+07,,,
186.39,1.15E+07,,,
186.43,3.82E+06,,,
186.47,1.16E+06,,,
186.52,2.28E+05,,,
186.56,5.63E+04,,,
186.6,1.27E+04,,,
186.64,2.60E+03,,,
186.69,3.16E+02,,,
186.73,5.28E+01,,,
186.77,8.05E+00,,,
186.81,1.12E+00,,,
186.86,8.36E-02,,,
186.9,9.45E-03,,,
186.94,9.75E-04,,,
186.98,9.17E-05,,,
187.03,4.18E-06,,,
187.07,3.13E-07,,,
212.24,1.41E-08,,,
212.28,1.36E-07,,,
212.32,1.56E-06,,,
212.37,2.27E-05,,,
212.41,1.79E-04,,,
212.45,1.32E-03,,,
212.49,9.14E-03,,,
212.54,9.31E-02,,,
212.58,5.53E-01,,,
212.62,3.07E+00,,,
212.66,1.60E+01,,,
212.71,1.14E+02,,,
212.75,5.11E+02,,,
212.79,2.14E+03,,,
212.83,8.39E+03,,,
212.88,4.22E+04,,,
212.92,1.42E+05,,,
212.96,4.49E+05,,,
213,1.33E+06,,,
213.05,4.67E+06,,,
213.09,1.19E+07,,,
213.13,2.82E+07,,,
213.17,6.25E+07,,,
213.22,1.54E+08,,,
213.26,2.93E+08,,,
213.3,5.22E+08,,,
213.34,8.67E+08,,,
213.39,1.49E+09,,,
213.43,2.12E+09,,,
213.47,2.82E+09,,,
213.51,3.50E+09,,,
213.56,4.17E+09,,,
213.6,4.43E+09,,,
213.64,4.40E+09,,,
213.68,4.07E+09,,,
213.73,3.35E+09,,,
213.77,2.66E+09,,,
213.81,1.96E+09,,,
213.85,1.35E+09,,,
213.9,7.70E+08,,,
213.94,4.54E+08,,,
213.98,2.49E+08,,,
214.02,1.28E+08,,,
214.07,5.02E+07,,,
214.11,2.20E+07,,,
214.15,8.98E+06,,,
214.19,3.45E+06,,,
214.24,1.07E+06,,,
214.28,7.47E+05,,,
214.32,1.37E+06,,,
214.36,3.47E+06,,,
214.41,1.07E+07,,,
214.45,2.46E+07,,,
214.49,5.28E+07,,,
214.53,1.06E+08,,,
214.58,2.27E+08,,,
214.62,3.89E+08,,,
214.66,6.21E+08,,,
214.7,9.25E+08,,,
214.75,1.38E+09,,,
214.79,1.76E+09,,,
214.83,2.10E+09,,,
214.87,2.33E+09,,,
214.92,2.42E+09,,,
214.96,2.31E+09,,,
215,2.08E+09,,,
215.04,1.78E+09,,,
215.09,1.39E+09,,,
215.13,1.13E+09,,,
215.17,9.57E+08,,,
215.21,8.69E+08,,,
215.26,8.52E+08,,,
215.3,8.75E+08,,,
215.34,8.97E+08,,,
215.38,8.93E+08,,,
215.43,8.32E+08,,,
215.47,7.39E+08,,,
215.51,6.18E+08,,,
215.56,4.54E+08,,,
215.6,3.30E+08,,,
215.64,2.25E+08,,,
215.68,1.43E+08,,,
215.73,7.46E+07,,,
215.77,4.10E+07,,,
215.81,2.11E+07,,,
215.85,1.02E+07,,,
215.9,3.70E+06,,,
215.94,1.53E+06,,,
215.98,5.89E+05,,,
216.02,2.12E+05,,,
216.07,5.39E+04,,,
216.11,1.67E+04,,,
216.15,4.80E+03,,,
216.19,1.29E+03,,,
216.24,2.28E+02,,,
216.28,5.26E+01,,,
216.32,1.13E+01,,,
216.36,2.28E+00,,,
216.41,2.79E-01,,,
216.45,4.80E-02,,,
216.49,7.71E-03,,,
216.53,1.16E-03,,,
216.58,9.81E-05,,,
216.62,1.26E-05,,,
216.66,1.51E-06,,,
216.7,1.69E-07,,,
251.86,1.91E-08,,,
251.91,2.02E-07,,,
251.95,1.26E-06,,,
251.99,7.49E-06,,,
252.03,4.25E-05,,,
252.08,3.46E-04,,,
252.12,1.75E-03,,,
252.16,8.41E-03,,,
252.2,3.85E-02,,,
252.25,2.41E-01,,,
252.29,9.85E-01,,,
252.33,3.84E+00,,,
252.37,1.43E+01,,,
252.42,6.86E+01,,,
252.46,2.28E+02,,,
252.5,7.22E+02,,,
252.54,2.18E+03,,,
252.59,8.09E+03,,,
252.63,2.19E+04,,,
252.67,5.66E+04,,,
252.71,1.39E+05,,,
252.76,4.03E+05,,,
252.8,8.95E+05,,,
252.84,1.90E+06,,,
252.88,3.86E+06,,,
252.93,8.79E+06,,,
252.97,1.62E+07,,,
253.01,2.86E+07,,,
253.05,4.85E+07,,,
253.1,8.86E+07,,,
253.14,1.37E+08,,,
253.18,2.04E+08,,,
253.22,2.91E+08,,,
253.27,4.30E+08,,,
253.31,5.61E+08,,,
253.35,7.02E+08,,,
253.39,8.44E+08,,,
253.44,9.99E+08,,,
253.48,1.09E+09,,,
253.52,1.14E+09,,,
253.56,1.14E+09,,,
253.61,1.06E+09,,,
253.65,9.56E+08,,,
253.69,8.21E+08,,,
253.73,6.73E+08,,,
253.78,4.90E+08,,,
253.82,3.61E+08,,,
253.86,2.53E+08,,,
253.9,1.69E+08,,,
253.95,9.52E+07,,,
253.99,5.70E+07,,,
254.03,3.25E+07,,,
254.07,1.76E+07,,,
254.12,7.64E+06,,,
254.16,3.71E+06,,,
254.2,1.71E+06,,,
254.24,7.52E+05,,,
254.29,2.51E+05,,,
254.33,9.87E+04,,,
254.37,3.72E+04,,,
254.41,1.40E+04,,,
254.46,6.83E+03,,,
254.5,1.09E+04,,,
254.54,2.69E+04,,,
254.58,6.86E+04,,,
254.63,2.09E+05,,,
254.67,4.82E+05,,,
254.71,1.06E+06,,,
254.75,2.22E+06,,,
254.8,5.22E+06,,,
254.84,9.81E+06,,,
254.88,1.76E+07,,,
254.92,3.00E+07,,,
254.97,5.46E+07,,,
255.01,8.37E+07,,,
255.05,1.23E+08,,,
255.09,1.71E+08,,,
255.14,2.43E+08,,,
255.18,3.06E+08,,,
255.22,3.68E+08,,,
255.26,4.24E+08,,,
255.31,4.76E+08,,,
255.35,4.97E+08,,,
255.39,4.97E+08,,,
255.43,4.78E+08,,,
255.48,4.29E+08,,,
255.52,3.77E+08,,,
255.56,3.18E+08,,,
255.6,2.58E+08,,,
255.65,1.87E+08,,,
255.69,1.39E+08,,,
255.73,9.91E+07,,,
255.77,6.78E+07,,,
255.82,3.98E+07,,,
255.86,2.48E+07,,,
255.9,1.48E+07,,,
255.95,7.32E+06,,,
255.99,3.96E+06,,,
256.03,2.05E+06,,,
256.07,1.01E+06,,,
256.12,3.93E+05,,,
256.16,1.75E+05,,,
256.2,7.45E+04,,,
256.24,3.02E+04,,,
256.29,9.13E+03,,,
256.33,3.33E+03,,,
256.37,1.15E+03,,,
256.41,3.81E+02,,,
256.46,8.93E+01,,,
256.5,2.65E+01,,,
256.54,7.48E+00,,,
256.58,2.01E+00,,,
256.63,3.64E-01,,,
256.67,8.78E-02,,,
256.71,2.02E-02,,,
256.75,4.41E-03,,,
256.8,6.15E-04,,,
256.84,1.20E-04,,,
256.88,2.25E-05,,,
256.92,3.98E-06,,,
256.97,4.29E-07,,,
257.01,6.82E-08,,,
257.05,1.03E-08,,,
320.02,2.44E-16,,,
320.06,1.05E-15,,,
320.1,4.37E-15,,,
320.14,1.77E-14,,,
320.19,9.70E-14,,,
320.23,3.66E-13,,,
320.27,1.34E-12,,,
320.31,4.75E-12,,,
320.36,2.21E-11,,,
320.4,7.32E-11,,,
320.44,2.35E-10,,,
320.48,7.30E-10,,,
320.53,2.89E-09,,,
320.57,8.38E-09,,,
320.61,2.36E-08,,,
320.65,6.43E-08,,,
320.7,2.16E-07,,,
320.74,5.49E-07,,,
320.78,1.36E-06,,,
320.82,3.24E-06,,,
320.87,9.23E-06,,,
320.91,2.06E-05,,,
320.95,4.46E-05,,,
320.99,9.36E-05,,,
321.04,2.26E-04,,,
321.08,4.43E-04,,,
321.12,8.40E-04,,,
321.16,1.55E-03,,,
321.21,3.17E-03,,,
321.25,5.45E-03,,,
321.29,9.06E-03,,,
321.33,1.46E-02,,,
321.38,2.55E-02,,,
321.42,3.84E-02,,,
321.46,5.60E-02,,,
321.5,7.92E-02,,,
321.55,1.17E-01,,,
321.59,1.55E-01,,,
321.63,1.98E-01,,,
321.67,2.46E-01,,,
321.72,3.08E-01,,,
321.76,3.57E-01,,,
321.8,4.01E-01,,,
321.84,4.36E-01,,,
321.89,4.65E-01,,,
321.93,4.72E-01,,,
321.97,4.65E-01,,,
322.01,4.44E-01,,,
322.06,4.01E-01,,,
322.1,3.57E-01,,,
322.14,3.08E-01,,,
322.18,2.58E-01,,,
322.23,1.98E-01,,,
322.27,1.55E-01,,,
322.31,1.17E-01,,,
322.35,8.61E-02,,,
322.4,5.61E-02,,,
322.44,3.86E-02,,,
322.48,2.60E-02,,,
322.52,1.75E-02,,,
322.57,1.15E-02,,,
322.61,9.75E-03,,,
322.65,1.07E-02,,,
322.69,1.45E-02,,,
322.74,2.44E-02,,,
322.78,3.77E-02,,,
322.82,5.74E-02,,,
322.86,8.51E-02,,,
322.91,1.34E-01,,,
322.95,1.86E-01,,,
322.99,2.50E-01,,,
323.03,3.27E-01,,,
323.08,4.37E-01,,,
323.12,5.33E-01,,,
323.16,6.30E-01,,,
323.2,7.22E-01,,,
323.25,8.21E-01,,,
323.29,8.79E-01,,,
323.33,9.12E-01,,,
323.38,9.16E-01,,,
323.42,8.87E-01,,,
323.46,8.34E-01,,,
323.5,7.60E-01,,,
323.55,6.49E-01,,,
323.59,5.52E-01,,,
323.63,4.56E-01,,,
323.67,3.65E-01,,,
323.72,2.65E-01,,,
323.76,1.98E-01,,,
323.8,1.43E-01,,,
323.84,1.01E-01,,,
323.89,6.20E-02,,,
323.93,4.07E-02,,,
323.97,2.59E-02,,,
324.01,1.60E-02,,,
324.06,8.37E-03,,,
324.1,4.82E-03,,,
324.14,2.70E-03,,,
324.18,1.46E-03,,,
324.23,6.50E-04,,,
324.27,3.29E-04,,,
324.31,1.61E-04,,,
324.35,7.68E-05,,,
324.4,2.91E-05,,,
324.44,1.29E-05,,,
324.48,5.56E-06,,,
324.52,2.32E-06,,,
324.57,7.47E-07,,,
324.61,2.91E-07,,,
324.65,1.10E-07,,,
324.69,4.04E-08,,,
324.74,1.11E-08,,,
324.78,3.79E-09,,,
324.82,1.26E-09,,,
324.86,4.05E-10,,,
324.91,9.41E-11,,,
324.95,2.83E-11,,,
324.99,8.25E-12,,,
325.03,2.33E-12,,,
325.08,4.61E-13,,,
325.12,1.22E-13,,,
325.16,3.12E-14,,,
325.2,7.74E-15,,,
325.25,1.30E-15,,,
325.29,3.01E-16,,,
372.18,1.40E-19,,,
372.23,6.78E-19,,,
372.27,2.34E-18,,,
372.31,7.89E-18,,,
372.35,2.60E-17,,,
372.4,1.12E-16,,,
372.44,3.50E-16,,,
372.48,1.07E-15,,,
372.52,3.20E-15,,,
372.57,1.22E-14,,,
372.61,3.47E-14,,,
372.65,9.63E-14,,,
372.69,2.61E-13,,,
372.74,8.82E-13,,,
372.78,2.28E-12,,,
372.82,5.73E-12,,,
372.86,1.41E-11,,,
372.91,4.22E-11,,,
372.95,9.88E-11,,,
372.99,2.26E-10,,,
373.03,5.05E-10,,,
373.08,1.34E-09,,,
373.12,2.84E-09,,,
373.16,5.90E-09,,,
373.2,1.20E-08,,,
373.25,2.81E-08,,,
373.29,5.41E-08,,,
373.33,1.02E-07,,,
373.37,1.88E-07,,,
373.42,3.90E-07,,,
373.46,6.82E-07,,,
373.5,1.17E-06,,,
373.54,1.95E-06,,,
373.59,3.59E-06,,,
373.63,5.70E-06,,,
373.67,8.84E-06,,,
373.71,1.34E-05,,,
373.76,2.19E-05,,,
373.8,3.15E-05,,,
373.84,4.43E-05,,,
373.88,6.10E-05,,,
373.93,8.81E-05,,,
373.97,1.15E-04,,,
374.01,1.47E-04,,,
374.05,1.84E-04,,,
374.1,2.35E-04,,,
374.14,2.79E-04,,,
374.18,3.24E-04,,,
374.22,3.67E-04,,,
374.27,4.16E-04,,,
374.31,4.48E-04,,,
374.35,4.72E-04,,,
374.39,4.85E-04,,,
374.44,4.87E-04,,,
374.48,4.76E-04,,,
374.52,4.55E-04,,,
374.56,4.25E-04,,,
374.61,3.78E-04,,,
374.65,3.35E-04,,,
374.69,2.90E-04,,,
374.73,2.46E-04,,,
374.78,1.94E-04,,,
374.82,1.56E-04,,,
374.86,1.23E-04,,,
374.9,9.44E-05,,,
374.95,6.59E-05,,,
374.99,4.81E-05,,,
375.03,3.44E-05,,,
375.07,2.40E-05,,,
375.12,1.48E-05,,,
375.16,9.83E-06,,,
375.2,6.37E-06,,,
375.24,4.04E-06,,,
375.29,2.21E-06,,,
375.33,1.33E-06,,,
375.37,7.82E-07,,,
375.41,4.49E-07,,,
375.46,2.18E-07,,,
375.5,1.19E-07,,,
375.54,6.35E-08,,,
375.58,3.31E-08,,,
375.63,1.42E-08,,,
375.67,7.06E-09,,,
375.71,3.42E-09,,,
375.75,1.62E-09,,,
375.8,6.16E-10,,,
375.84,2.77E-10,,,
375.88,1.22E-10,,,
375.92,5.23E-11,,,
375.97,1.76E-11,,,
376.01,7.20E-12,,,
376.05,2.87E-12,,,
376.09,1.12E-12,,,
376.14,3.34E-13,,,
376.18,1.24E-13,,,
376.22,4.49E-14,,,
376.26,1.59E-14,,,
376.31,4.20E-15,,,
376.35,1.41E-15,,,
376.39,4.64E-16,,,
376.43,1.49E-16,,,
376.48,3.49E-17,,,
376.52,1.07E-17,,,
376.56,3.18E-18,,,
376.6,9.26E-19,,,
376.65,1.92E-19,,,
376.69,5.32E-20,,,
377.92,1.63E-19,,,
377.97,7.75E-19,,,
378.01,2.63E-18,,,
378.05,8.75E-18,,,
378.09,2.85E-17,,,
378.14,1.20E-16,,,
378.18,3.72E-16,,,
378.22,1.13E-15,,,
378.26,3.33E-15,,,
378.31,1.25E-14,,,
378.35,3.53E-14,,,
378.39,9.71E-14,,,
378.43,2.62E-13,,,
378.48,8.74E-13,,,
378.52,2.24E-12,,,
378.56,5.61E-12,,,
378.6,1.38E-11,,,
378.65,4.09E-11,,,
378.69,9.54E-11,,,
378.73,2.18E-10,,,
378.77,4.86E-10,,,
378.82,1.28E-09,,,
378.86,2.72E-09,,,
378.9,5.66E-09,,,
378.94,1.15E-08,,,
378.99,2.70E-08,,,
379.03,5.21E-08,,,
379.07,9.85E-08,,,
379.11,1.82E-07,,,
379.16,3.80E-07,,,
379.2,6.69E-07,,,
379.24,1.15E-06,,,
379.28,1.94E-06,,,
379.33,3.60E-06,,,
379.37,5.76E-06,,,
379.41,9.01E-06,,,
379.45,1.38E-05,,,
379.5,2.28E-05,,,
379.54,3.32E-05,,,
379.58,4.73E-05,,,
379.62,6.59E-05,,,
379.67,9.68E-05,,,
379.71,1.28E-04,,,
379.75,1.67E-04,,,
379.79,2.11E-04,,,
379.84,2.76E-04,,,
379.88,3.33E-04,,,
379.92,3.93E-04,,,
379.96,4.54E-04,,,
380.01,5.26E-04,,,
380.05,5.78E-04,,,
380.09,6.22E-04,,,
380.13,6.53E-04,,,
380.18,6.74E-04,,,
380.22,6.74E-04,,,
380.26,6.59E-04,,,
380.3,6.31E-04,,,
380.35,5.78E-04,,,
380.39,5.26E-04,,,
380.43,4.69E-04,,,
380.47,4.08E-04,,,
380.52,3.33E-04,,,
380.56,2.76E-04,,,
380.6,2.23E-04,,,
380.64,1.77E-04,,,
380.69,1.28E-04,,,
380.73,9.68E-05,,,
380.77,7.14E-05,,,
380.81,5.15E-05,,,
380.86,3.32E-05,,,
380.9,2.28E-05,,,
380.94,1.53E-05,,,
380.98,1.00E-05,,,
381.03,5.76E-06,,,
381.07,3.60E-06,,,
381.11,2.20E-06,,,
381.15,1.31E-06,,,
381.2,6.69E-07,,,
381.24,3.80E-07,,,
381.28,2.12E-07,,,
381.32,1.15E-07,,,
381.37,5.21E-08,,,
381.41,2.70E-08,,,
381.45,1.37E-08,,,
381.49,6.76E-09,,,
381.54,2.72E-09,,,
381.58,1.28E-09,,,
381.62,5.91E-10,,,
381.66,2.67E-10,,,
381.71,9.54E-11,,,
381.75,4.09E-11,,,
381.79,1.72E-11,,,
381.83,7.04E-12,,,
381.88,2.24E-12,,,
381.92,8.74E-13,,,
381.96,3.34E-13,,,
382,1.25E-13,,,
382.05,3.53E-14,,,
382.09,1.25E-14,,,
382.13,4.35E-15,,,
382.17,1.48E-15,,,
382.22,3.72E-16,,,
382.26,1.20E-16,,,
382.3,3.81E-17,,,
382.34,1.18E-17,,,
382.39,2.63E-18,,,
382.43,7.75E-19,,,
382.47,2.23E-19,,,
382.51,6.28E-20,,,
387.15,6.96E-20,,,
387.19,2.39E-19,,,
387.23,8.04E-19,,,
387.28,3.56E-18,,,
387.32,1.14E-17,,,
387.36,3.58E-17,,,
387.4,1.10E-16,,,
387.45,4.35E-16,,,
387.49,1.28E-15,,,
387.53,3.66E-15,,,
387.57,1.03E-14,,,
387.62,3.64E-14,,,
387.66,9.75E-14,,,
387.7,2.56E-13,,,
387.74,6.58E-13,,,
387.79,2.08E-12,,,
387.83,5.09E-12,,,
387.87,1.22E-11,,,
387.91,2.87E-11,,,
387.96,8.11E-11,,,
388,1.82E-10,,,
388.04,3.99E-10,,,
388.08,8.56E-10,,,
388.13,2.16E-09,,,
388.17,4.43E-09,,,
388.21,8.88E-09,,,
388.25,1.74E-08,,,
388.3,3.94E-08,,,
388.34,7.37E-08,,,
388.38,1.35E-07,,,
388.42,2.43E-07,,,
388.47,4.90E-07,,,
388.51,8.39E-07,,,
388.55,1.41E-06,,,
388.59,2.31E-06,,,
388.64,4.16E-06,,,
388.68,6.52E-06,,,
388.72,9.99E-06,,,
388.76,1.50E-05,,,
388.81,2.42E-05,,,
388.85,3.46E-05,,,
388.89,4.85E-05,,,
388.93,6.66E-05,,,
388.98,9.60E-05,,,
389.02,1.26E-04,,,
389.06,1.61E-04,,,
389.1,2.02E-04,,,
389.15,2.60E-04,,,
389.19,3.11E-04,,,
389.23,3.65E-04,,,
389.27,4.18E-04,,,
389.32,4.82E-04,,,
389.36,5.27E-04,,,
389.4,5.65E-04,,,
389.44,5.92E-04,,,
389.49,6.11E-04,,,
389.53,6.11E-04,,,
389.57,5.99E-04,,,
389.61,5.76E-04,,,
389.66,5.34E-04,,,
389.7,4.93E-04,,,
389.74,4.47E-04,,,
389.78,4.01E-04,,,
389.83,3.48E-04,,,
389.87,3.11E-04,,,
389.91,2.82E-04,,,
389.95,2.63E-04,,,
390,2.54E-04,,,
390.04,2.59E-04,,,
390.08,2.75E-04,,,
390.12,3.01E-04,,,
390.17,3.44E-04,,,
390.21,3.84E-04,,,
390.25,4.27E-04,,,
390.29,4.70E-04,,,
390.34,5.17E-04,,,
390.38,5.48E-04,,,
390.42,5.70E-04,,,
390.46,5.81E-04,,,
390.51,5.78E-04,,,
390.55,5.63E-04,,,
390.59,5.37E-04,,,
390.63,5.01E-04,,,
390.68,4.47E-04,,,
390.72,3.98E-04,,,
390.76,3.47E-04,,,
390.81,2.84E-04,,,
390.85,2.37E-04,,,
390.89,1.93E-04,,,
390.93,1.54E-04,,,
390.98,1.13E-04,,,
391.02,8.58E-05,,,
391.06,6.40E-05,,,
391.1,4.67E-05,,,
391.15,3.06E-05,,,
391.19,2.14E-05,,,
391.23,1.46E-05,,,
391.27,9.87E-06,,,
391.32,6.01E-06,,,
391.36,4.15E-06,,,
391.4,3.11E-06,,,
391.44,2.71E-06,,,
391.49,2.96E-06,,,
391.53,3.75E-06,,,
391.57,5.08E-06,,,
391.61,7.02E-06,,,
391.66,1.05E-05,,,
391.7,1.42E-05,,,
391.74,1.88E-05,,,
391.78,2.45E-05,,,
391.83,3.32E-05,,,
391.87,4.13E-05,,,
391.91,5.03E-05,,,
391.95,6.00E-05,,,
392,7.27E-05,,,
392.04,8.28E-05,,,
392.08,9.24E-05,,,
392.12,1.01E-04,,,
392.17,1.10E-04,,,
392.21,1.14E-04,,,
392.25,1.17E-04,,,
392.29,1.17E-04,,,
392.34,1.13E-04,,,
392.38,1.08E-04,,,
392.42,1.02E-04,,,
392.46,9.35E-05,,,
392.51,8.24E-05,,,
392.55,7.33E-05,,,
392.59,6.47E-05,,,
392.63,5.71E-05,,,
392.68,4.97E-05,,,
392.72,4.60E-05,,,
392.76,4.45E-05,,,
392.8,4.55E-05,,,
392.85,5.03E-05,,,
392.89,5.70E-05,,,
392.93,6.61E-05,,,
392.97,7.73E-05,,,
393.02,9.36E-05,,,
393.06,1.08E-04,,,
393.1,1.22E-04,,,
393.14,1.36E-04,,,
393.19,1.52E-04,,,
393.23,1.63E-04,,,
393.27,1.70E-04,,,
393.31,1.75E-04,,,
393.36,1.75E-04,,,
393.4,1.72E-04,,,
393.44,1.65E-04,,,
393.48,1.55E-04,,,
393.53,1.39E-04,,,
393.57,1.25E-04,,,
393.61,1.10E-04,,,
393.65,9.43E-05,,,
393.7,7.60E-05,,,
393.74,6.24E-05,,,
393.78,5.02E-05,,,
393.82,3.96E-05,,,
393.87,2.86E-05,,,
393.91,2.15E-05,,,
393.95,1.59E-05,,,
393.99,1.15E-05,,,
394.04,7.60E-06,,,
394.08,5.45E-06,,,
394.12,4.04E-06,,,
394.16,3.28E-06,,,
394.21,3.19E-06,,,
394.25,3.83E-06,,,
394.29,5.23E-06,,,
394.33,7.56E-06,,,
394.38,1.22E-05,,,
394.42,1.78E-05,,,
394.46,2.55E-05,,,
394.5,3.60E-05,,,
394.55,5.37E-05,,,
394.59,7.23E-05,,,
394.63,9.54E-05,,,
394.67,1.24E-04,,,
394.72,1.66E-04,,,
394.76,2.05E-04,,,
394.8,2.49E-04,,,
394.84,2.96E-04,,,
394.89,3.59E-04,,,
394.93,4.10E-04,,,
394.97,4.61E-04,,,
395.01,5.10E-04,,,
395.06,5.68E-04,,,
395.1,6.10E-04,,,
395.14,6.50E-04,,,
395.18,6.88E-04,,,
395.23,7.34E-04,,,
395.27,7.74E-04,,,
395.31,8.17E-04,,,
395.35,8.66E-04,,,
395.4,9.35E-04,,,
395.44,9.98E-04,,,
395.48,1.07E-03,,,
395.52,1.13E-03,,,
395.57,1.22E-03,,,
395.61,1.28E-03,,,
395.65,1.33E-03,,,
395.69,1.36E-03,,,
395.74,1.37E-03,,,
395.78,1.35E-03,,,
395.82,1.32E-03,,,
395.86,1.26E-03,,,
395.91,1.15E-03,,,
395.95,1.05E-03,,,
395.99,9.44E-04,,,
396.03,8.30E-04,,,
396.08,6.86E-04,,,
396.12,5.76E-04,,,
396.16,4.74E-04,,,
396.2,3.83E-04,,,
396.25,2.84E-04,,,
396.29,2.19E-04,,,
396.33,1.65E-04,,,
396.37,1.22E-04,,,
396.42,8.15E-05,,,
396.46,5.76E-05,,,
396.5,3.99E-05,,,
396.54,2.71E-05,,,
396.59,1.62E-05,,,
396.63,1.05E-05,,,
396.67,6.65E-06,,,
396.71,4.14E-06,,,
396.76,2.22E-06,,,
396.8,1.32E-06,,,
396.84,7.67E-07,,,
396.88,4.38E-07,,,
396.93,2.11E-07,,,
396.97,1.15E-07,,,
397.01,6.12E-08,,,
397.05,3.20E-08,,,
397.1,1.38E-08,,,
397.14,6.90E-09,,,
397.18,3.37E-09,,,
397.22,1.62E-09,,,
397.27,6.27E-10,,,
397.31,2.87E-10,,,
397.35,1.29E-10,,,
397.4,4.59E-11,,,
397.44,1.97E-11,,,
397.48,8.25E-12,,,
397.52,3.39E-12,,,
397.57,1.09E-12,,,
397.61,4.26E-13,,,
397.65,1.65E-13,,,
397.69,6.53E-14,,,
397.74,3.01E-14,,,
397.78,3.95E-14,,,
397.82,8.88E-14,,,
397.86,2.23E-13,,,
397.91,6.99E-13,,,
397.95,1.71E-12,,,
397.99,4.12E-12,,,
398.03,9.69E-12,,,
398.08,2.75E-11,,,
398.12,6.18E-11,,,
398.16,1.36E-10,,,
398.2,2.95E-10,,,
398.25,7.51E-10,,,
398.29,1.55E-09,,,
398.33,3.15E-09,,,
398.37,6.25E-09,,,
398.42,1.43E-08,,,
398.46,2.72E-08,,,
398.5,5.06E-08,,,
398.54,9.22E-08,,,
398.59,1.90E-07,,,
398.63,3.31E-07,,,
398.67,5.66E-07,,,
398.71,9.48E-07,,,
398.76,1.76E-06,,,
398.8,2.81E-06,,,
398.84,4.41E-06,,,
398.88,6.79E-06,,,
398.93,1.13E-05,,,
398.97,1.66E-05,,,
399.01,2.40E-05,,,
399.05,3.38E-05,,,
399.1,5.07E-05,,,
399.14,6.84E-05,,,
399.18,9.06E-05,,,
399.22,1.18E-04,,,
399.27,1.58E-04,,,
399.31,1.96E-04,,,
399.35,2.38E-04,,,
399.39,2.84E-04,,,
399.44,3.44E-04,,,
399.48,3.92E-04,,,
399.52,4.37E-04,,,
399.56,4.79E-04,,,
399.61,5.21E-04,,,
399.65,5.45E-04,,,
399.69,5.59E-04,,,
399.73,5.61E-04,,,
399.78,5.49E-04,,,
