Wavelength,Spectra
306.54,3.78E-09
306.58,1.78E-08
306.62,8.08E-08
306.67,5.11E-07
306.71,2.15E-06
306.75,8.78E-06
306.79,3.46E-05
306.84,1.83E-04
306.88,6.69E-04
306.92,2.36E-03
306.96,8.06E-03
307.01,3.57E-02
307.05,1.13E-01
307.09,3.46E-01
307.13,1.02E+00
307.18,3.79E+00
307.22,1.04E+01
307.26,2.76E+01
307.3,7.08E+01
307.35,2.19E+02
307.39,5.21E+02
307.43,1.20E+03
307.47,2.67E+03
307.52,6.90E+03
307.56,1.42E+04
307.6,2.84E+04
307.64,5.47E+04
307.69,1.18E+05
307.73,2.12E+05
307.77,3.65E+05
307.81,6.10E+05
307.86,1.11E+06
307.9,1.71E+06
307.94,2.56E+06
307.98,3.71E+06
308.03,5.62E+06
308.07,7.55E+06
308.11,9.80E+06
308.15,1.23E+07
308.2,1.56E+07
308.24,1.81E+07
308.28,2.04E+07
308.32,2.22E+07
308.37,2.35E+07
308.41,2.37E+07
308.45,2.31E+07
308.49,2.18E+07
308.54,1.93E+07
308.58,1.69E+07
308.62,1.43E+07
308.66,1.17E+07
308.71,8.64E+06
308.75,6.54E+06
308.79,4.79E+06
308.83,3.40E+06
308.88,2.10E+06
308.92,1.38E+06
308.96,8.77E+05
309,5.39E+05
309.05,2.79E+05
309.09,1.59E+05
309.13,8.75E+04
309.17,4.65E+04
309.22,2.02E+04
309.26,9.95E+03
309.3,4.75E+03
309.34,2.19E+03
309.39,7.94E+02
309.43,3.39E+02
309.47,1.40E+02
309.51,5.61E+01
309.56,1.70E+01
309.6,6.30E+00
309.64,2.26E+00
309.68,7.83E-01
309.73,1.99E-01
309.77,6.38E-02
309.81,1.98E-02
309.86,4.40E-03
309.9,1.32E-03
309.94,5.65E-04
309.98,8.50E-04
310.03,3.51E-03
310.07,1.14E-02
310.11,3.63E-02
310.15,1.11E-01
310.2,4.32E-01
310.24,1.23E+00
310.28,3.39E+00
310.32,9.05E+00
310.37,2.95E+01
310.41,7.29E+01
310.45,1.75E+02
310.49,4.05E+02
310.54,1.11E+03
310.58,2.38E+03
310.62,4.97E+03
310.66,1.00E+04
310.71,2.29E+04
310.75,4.29E+04
310.79,7.77E+04
310.83,1.36E+05
310.88,2.62E+05
310.92,4.26E+05
310.96,6.71E+05
311,1.02E+06
311.05,1.65E+06
311.09,2.33E+06
311.13,3.19E+06
311.17,4.22E+06
311.22,5.73E+06
311.26,7.04E+06
311.3,8.38E+06
311.34,9.65E+06
311.39,1.10E+07
311.43,1.18E+07
311.47,1.23E+07
311.51,1.25E+07
311.56,1.24E+07
311.6,1.22E+07
311.64,1.20E+07
311.68,1.21E+07
311.73,1.29E+07
311.77,1.43E+07
311.81,1.67E+07
311.85,2.02E+07
311.9,2.60E+07
311.94,3.19E+07
311.98,3.86E+07
312.02,4.57E+07
312.07,5.48E+07
312.11,6.15E+07
312.15,6.73E+07
312.19,7.17E+07
312.24,7.47E+07
312.28,7.49E+07
312.32,7.32E+07
312.36,6.96E+07
312.41,6.29E+07
312.45,5.63E+07
312.49,4.91E+07
312.53,4.16E+07
312.58,3.26E+07
312.62,2.59E+07
312.66,2.01E+07
312.7,1.51E+07
312.75,1.02E+07
312.79,7.15E+06
312.83,4.89E+06
312.87,3.24E+06
312.92,1.86E+06
312.96,1.17E+06
313,7.21E+05
313.04,4.59E+05
313.09,3.15E+05
313.13,3.12E+05
313.17,3.98E+05
313.21,5.77E+05
313.26,9.56E+05
313.3,1.41E+06
313.34,2.03E+06
313.38,2.83E+06
313.43,4.10E+06
313.47,5.32E+06
313.51,6.68E+06
313.55,8.11E+06
313.6,9.89E+06
313.64,1.12E+07
313.68,1.22E+07
313.72,1.29E+07
313.77,1.33E+07
313.81,1.31E+07
313.85,1.24E+07
313.89,1.15E+07
313.94,9.89E+06
313.98,8.48E+06
314.02,7.03E+06
314.06,5.65E+06
314.11,4.10E+06
314.15,3.06E+06
314.19,2.21E+06
314.23,1.55E+06
314.28,9.45E+05
314.32,6.14E+05
314.36,3.87E+05
314.4,2.35E+05
314.45,1.21E+05
314.49,6.85E+04
314.53,3.76E+04
314.57,1.99E+04
314.62,8.62E+03
314.66,4.25E+03
314.7,2.03E+03
314.74,9.38E+02
314.79,3.41E+02
314.83,1.47E+02
314.87,6.10E+01
314.91,2.45E+01
314.96,7.52E+00
315,2.81E+00
315.04,1.02E+00
315.08,3.57E-01
315.13,9.20E-02
315.17,3.00E-02
315.21,9.45E-03
315.25,2.89E-03
315.3,6.26E-04
315.34,1.78E-04
315.38,4.88E-05
315.42,1.30E-05
315.47,2.37E-06
315.51,5.85E-07
315.55,1.40E-07
315.59,3.24E-08
315.64,4.98E-09
317,5.32E-09
317.04,2.34E-08
317.08,9.93E-08
317.13,5.80E-07
317.17,2.30E-06
317.21,8.82E-06
317.25,3.28E-05
317.3,1.62E-04
317.34,5.62E-04
317.38,1.89E-03
317.42,6.14E-03
317.47,2.57E-02
317.51,7.78E-02
317.55,2.29E-01
317.59,6.51E-01
317.64,2.30E+00
317.68,6.11E+00
317.72,1.57E+01
317.76,3.91E+01
317.81,1.17E+02
317.85,2.72E+02
317.89,6.11E+02
317.93,1.33E+03
317.98,3.37E+03
318.02,6.84E+03
318.06,1.35E+04
318.1,2.56E+04
318.15,5.49E+04
318.19,9.76E+04
318.23,1.68E+05
318.27,2.80E+05
318.32,5.07E+05
318.36,7.88E+05
318.4,1.19E+06
318.44,1.73E+06
318.49,2.66E+06
318.53,3.61E+06
318.57,4.75E+06
318.61,6.06E+06
318.66,7.87E+06
318.7,9.36E+06
318.74,1.08E+07
318.78,1.20E+07
318.83,1.32E+07
318.87,1.38E+07
318.91,1.39E+07
318.95,1.36E+07
319,1.27E+07
319.04,1.16E+07
319.08,1.04E+07
319.12,9.06E+06
319.17,7.54E+06
319.21,6.54E+06
319.25,5.84E+06
319.29,5.48E+06
319.34,5.55E+06
319.38,6.03E+06
319.42,6.82E+06
319.46,7.86E+06
319.51,9.36E+06
319.55,1.06E+07
319.59,1.17E+07
319.63,1.26E+07
319.68,1.32E+07
319.72,1.33E+07
319.76,1.30E+07
319.8,1.23E+07
319.85,1.10E+07
319.89,9.70E+06
319.93,8.29E+06
319.97,6.87E+06
320.02,5.20E+06
320.06,4.02E+06
320.1,3.01E+06
320.14,2.18E+06
320.19,1.40E+06
320.23,9.45E+05
320.27,6.19E+05
320.31,3.93E+05
320.36,2.13E+05
320.4,1.26E+05
320.44,7.25E+04
320.48,4.03E+04
320.53,1.85E+04
320.57,9.59E+03
320.61,4.82E+03
320.65,2.34E+03
320.7,9.12E+02
320.74,4.14E+02
320.78,1.82E+02
320.82,7.75E+01
320.87,2.55E+01
320.91,1.01E+01
320.95,3.90E+00
320.99,1.46E+00
321.04,4.06E-01
321.08,1.41E-01
321.12,4.76E-02
321.16,1.55E-02
321.21,3.67E-03
321.25,1.12E-03
321.29,3.29E-04
321.33,9.41E-05
321.38,1.88E-05
321.42,5.02E-06
321.46,1.30E-06
321.5,3.24E-07
321.55,5.49E-08
321.59,1.28E-08
321.63,2.89E-09
324.35,1.18E-08
324.4,7.29E-08
324.44,3.02E-07
324.48,1.21E-06
324.52,4.72E-06
324.57,2.47E-05
324.61,9.01E-05
324.65,3.18E-04
324.69,1.09E-03
324.74,4.88E-03
324.78,1.56E-02
324.82,4.86E-02
324.86,1.47E-01
324.91,5.59E-01
324.95,1.58E+00
324.99,4.32E+00
325.03,1.15E+01
325.08,3.73E+01
325.12,9.25E+01
325.16,2.23E+02
325.2,5.21E+02
325.25,1.44E+03
325.29,3.15E+03
325.33,6.68E+03
325.37,1.37E+04
325.42,3.24E+04
325.46,6.24E+04
325.5,1.16E+05
325.54,2.11E+05
325.59,4.24E+05
325.63,7.18E+05
325.67,1.18E+06
325.71,1.88E+06
325.76,3.22E+06
325.8,4.80E+06
325.84,6.93E+06
325.88,9.72E+06
325.93,1.42E+07
325.97,1.86E+07
326.01,2.37E+07
326.05,2.92E+07
326.1,3.65E+07
326.14,4.21E+07
326.18,4.71E+07
326.22,5.12E+07
326.27,5.44E+07
326.31,5.53E+07
326.35,5.45E+07
326.39,5.22E+07
326.44,4.75E+07
326.48,4.29E+07
326.52,3.78E+07
326.56,3.27E+07
326.61,2.72E+07
326.65,2.38E+07
326.69,2.17E+07
326.73,2.10E+07
326.78,2.23E+07
326.82,2.49E+07
326.86,2.87E+07
326.9,3.35E+07
326.95,4.03E+07
326.99,4.59E+07
327.03,5.09E+07
327.07,5.51E+07
327.12,5.84E+07
327.16,5.93E+07
327.2,5.86E+07
327.24,5.62E+07
327.29,5.16E+07
327.33,4.70E+07
327.37,4.23E+07
327.41,3.82E+07
327.46,3.48E+07
327.5,3.44E+07
327.54,3.67E+07
327.58,4.23E+07
327.63,5.49E+07
327.67,6.98E+07
327.71,8.92E+07
327.75,1.13E+08
327.8,1.49E+08
327.84,1.81E+08
327.88,2.15E+08
327.92,2.50E+08
327.97,2.93E+08
328.01,3.26E+08
328.05,3.55E+08
328.09,3.81E+08
328.14,4.04E+08
328.18,4.17E+08
328.22,4.22E+08
328.26,4.21E+08
328.31,4.09E+08
328.35,3.92E+08
328.39,3.69E+08
328.43,3.40E+08
328.48,2.99E+08
328.52,2.64E+08
328.56,2.29E+08
328.6,1.95E+08
328.65,1.56E+08
328.69,1.29E+08
328.73,1.06E+08
328.77,8.70E+07
328.82,6.89E+07
328.86,5.79E+07
328.9,4.92E+07
328.94,4.24E+07
328.99,3.54E+07
329.03,3.06E+07
329.07,2.62E+07
329.11,2.22E+07
329.16,1.75E+07
329.2,1.41E+07
329.24,1.11E+07
329.28,8.53E+06
329.33,5.89E+06
329.37,4.24E+06
329.41,2.97E+06
329.45,2.02E+06
329.5,1.20E+06
329.54,7.62E+05
329.58,4.71E+05
329.62,2.83E+05
329.67,1.43E+05
329.71,8.05E+04
329.75,4.39E+04
329.79,2.32E+04
329.84,1.01E+04
329.88,4.98E+03
329.92,2.40E+03
329.96,1.12E+03
330.01,4.14E+02
330.05,1.81E+02
330.09,7.68E+01
330.14,2.52E+01
330.18,1.00E+01
330.22,3.85E+00
330.26,1.44E+00
330.31,4.04E-01
330.35,1.41E-01
330.39,4.80E-02
330.43,1.59E-02
330.48,3.84E-03
330.52,1.32E-03
330.56,8.90E-04
330.6,1.99E-03
330.65,8.70E-03
330.69,2.85E-02
330.73,9.08E-02
330.77,2.81E-01
330.82,1.11E+00
330.86,3.22E+00
330.9,9.06E+00
330.94,2.48E+01
330.99,8.38E+01
331.03,2.15E+02
331.07,5.36E+02
331.11,1.30E+03
331.16,3.76E+03
331.2,8.52E+03
331.24,1.88E+04
331.28,4.01E+04
331.33,9.97E+04
331.37,2.00E+05
331.41,3.89E+05
331.45,7.36E+05
331.5,1.57E+06
331.54,2.78E+06
331.58,4.79E+06
331.62,8.01E+06
331.67,1.46E+07
331.71,2.29E+07
331.75,3.49E+07
331.79,5.16E+07
331.84,8.07E+07
331.88,1.12E+08
331.92,1.51E+08
331.96,1.97E+08
332.01,2.64E+08
332.05,3.24E+08
332.09,3.85E+08
332.13,4.45E+08
332.18,5.12E+08
332.22,5.55E+08
332.26,5.83E+08
332.3,5.96E+08
332.35,5.88E+08
332.39,5.63E+08
332.43,5.24E+08
332.47,4.73E+08
332.52,4.00E+08
332.56,3.39E+08
332.6,2.79E+08
332.64,2.23E+08
332.69,1.61E+08
332.73,1.21E+08
332.77,8.78E+07
332.81,6.20E+07
332.86,3.86E+07
332.9,2.55E+07
332.94,1.64E+07
332.98,1.03E+07
333.03,5.51E+06
333.07,3.28E+06
333.11,1.96E+06
333.15,1.25E+06
333.2,9.11E+05
333.24,9.49E+05
333.28,1.21E+06
333.32,1.67E+06
333.37,2.56E+06
333.41,3.54E+06
333.45,4.78E+06
333.49,6.27E+06
333.54,8.47E+06
333.58,1.04E+07
333.62,1.25E+07
333.66,1.45E+07
333.71,1.68E+07
333.75,1.83E+07
333.79,1.94E+07
333.83,2.00E+07
333.88,1.99E+07
333.92,1.92E+07
333.96,1.80E+07
334,1.64E+07
334.05,1.40E+07
334.09,1.20E+07
334.13,9.92E+06
334.17,8.00E+06
334.22,5.87E+06
334.26,4.44E+06
334.3,3.26E+06
334.34,2.33E+06
334.39,1.47E+06
334.43,9.80E+05
334.47,6.37E+05
334.51,4.03E+05
334.56,2.18E+05
334.6,1.29E+05
334.64,7.42E+04
334.68,4.15E+04
334.73,1.93E+04
334.77,1.01E+04
334.81,5.16E+03
334.85,2.59E+03
334.9,1.14E+03
334.94,7.58E+02
334.98,8.46E+02
335.02,1.46E+03
335.07,3.44E+03
335.11,6.88E+03
335.15,1.35E+04
335.19,2.56E+04
335.24,5.51E+04
335.28,9.86E+04
335.32,1.71E+05
335.36,2.89E+05
335.41,5.35E+05
335.45,8.48E+05
335.49,1.31E+06
335.53,1.96E+06
335.58,3.11E+06
335.62,4.38E+06
335.66,5.97E+06
335.7,7.93E+06
335.75,1.09E+07
335.79,1.35E+07
335.83,1.64E+07
335.87,1.93E+07
335.92,2.27E+07
335.96,2.51E+07
336,2.70E+07
336.04,2.82E+07
336.09,2.87E+07
336.13,2.83E+07
336.17,2.72E+07
336.21,2.56E+07
336.26,2.32E+07
336.3,2.13E+07
336.34,1.96E+07
336.38,1.84E+07
336.43,1.78E+07
336.47,1.82E+07
336.51,1.93E+07
336.55,2.12E+07
336.6,2.43E+07
336.64,2.71E+07
336.68,2.99E+07
336.72,3.25E+07
336.77,3.49E+07
336.81,3.60E+07
336.85,3.61E+07
336.9,3.50E+07
336.94,3.30E+07
336.98,3.03E+07
337.02,2.71E+07
337.07,2.26E+07
337.11,1.89E+07
337.15,1.54E+07
337.19,1.22E+07
337.24,8.79E+06
337.28,6.54E+06
337.32,4.73E+06
337.36,3.32E+06
337.41,2.06E+06
337.45,1.36E+06
337.49,8.69E+05
337.53,5.42E+05
337.58,2.89E+05
337.62,1.69E+05
337.66,9.61E+04
337.7,5.31E+04
337.75,2.44E+04
337.79,1.26E+04
337.83,6.38E+03
337.87,3.13E+03
337.92,1.24E+03
337.96,5.69E+02
338,2.55E+02
338.04,1.11E+02
338.09,3.79E+01
338.13,1.61E+01
338.17,8.12E+00
338.21,8.04E+00
338.26,2.06E+01
338.3,5.27E+01
338.34,1.35E+02
338.38,3.37E+02
338.43,1.02E+03
338.47,2.38E+03
338.51,5.44E+03
338.55,1.21E+04
338.6,3.15E+04
338.64,6.56E+04
338.68,1.33E+05
338.72,2.63E+05
338.77,5.91E+05
338.81,1.10E+06
338.85,1.97E+06
338.89,3.46E+06
338.94,6.72E+06
338.98,1.11E+07
339.02,1.78E+07
339.06,2.77E+07
339.11,4.64E+07
339.15,6.80E+07
339.19,9.69E+07
339.23,1.34E+08
339.28,1.94E+08
339.32,2.53E+08
339.36,3.21E+08
339.4,3.97E+08
339.45,4.96E+08
339.49,5.76E+08
339.53,6.51E+08
339.57,7.17E+08
339.62,7.78E+08
339.66,8.06E+08
339.7,8.14E+08
339.74,8.02E+08
339.79,7.59E+08
339.83,7.06E+08
339.87,6.42E+08
339.91,5.69E+08
339.96,4.75E+08
340,4.01E+08
340.04,3.31E+08
340.08,2.68E+08
340.13,2.00E+08
340.17,1.56E+08
340.21,1.18E+08
340.25,8.86E+07
340.3,6.01E+07
340.34,4.33E+07
340.38,3.06E+07
340.42,2.12E+07
340.47,1.31E+07
340.51,8.67E+06
340.55,5.64E+06
340.59,3.59E+06
340.64,1.98E+06
340.68,1.20E+06
340.72,7.08E+05
340.76,4.09E+05
340.81,1.98E+05
340.85,1.08E+05
340.89,5.75E+04
340.93,2.98E+04
340.98,1.26E+04
341.02,6.14E+03
341.06,2.92E+03
341.1,1.35E+03
341.15,4.95E+02
341.19,2.15E+02
341.23,9.11E+01
341.27,3.75E+01
341.32,1.19E+01
341.36,4.61E+00
341.4,1.73E+00
341.44,6.35E-01
341.49,1.74E-01
341.53,6.00E-02
341.57,2.01E-02
341.61,6.73E-03
341.66,2.45E-03
341.7,3.55E-03
341.74,1.04E-02
341.78,3.31E-02
341.83,1.38E-01
341.87,4.19E-01
341.91,1.24E+00
341.95,3.57E+00
342,1.29E+01
342.04,3.50E+01
342.08,9.22E+01
342.12,2.37E+02
342.17,7.39E+02
342.21,1.79E+03
342.25,4.20E+03
342.29,9.60E+03
342.34,2.60E+04
342.38,5.59E+04
342.42,1.17E+05
342.46,2.39E+05
342.51,5.59E+05
342.55,1.07E+06
342.59,2.00E+06
342.63,3.63E+06
342.68,7.37E+06
342.72,1.26E+07
342.76,2.09E+07
342.8,3.39E+07
342.85,5.96E+07
342.89,9.07E+07
342.93,1.34E+08
342.97,1.94E+08
343.02,2.95E+08
343.06,4.00E+08
343.1,5.28E+08
343.14,6.79E+08
343.19,8.94E+08
343.23,1.08E+09
343.27,1.27E+09
343.31,1.46E+09
343.36,1.66E+09
343.4,1.79E+09
343.44,1.88E+09
343.48,1.92E+09
343.53,1.89E+09
343.57,1.82E+09
343.61,1.70E+09
343.66,1.50E+09
343.7,1.32E+09
343.74,1.13E+09
343.78,9.40E+08
343.83,7.20E+08
343.87,5.64E+08
343.91,4.30E+08
343.95,3.19E+08
344,2.11E+08
344.04,1.48E+08
344.08,1.00E+08
344.12,6.63E+07
344.17,3.81E+07
344.21,2.37E+07
344.25,1.43E+07
344.29,8.45E+06
344.34,4.20E+06
344.38,2.33E+06
344.42,1.26E+06
344.46,6.60E+05
344.51,2.84E+05
344.55,1.40E+05
344.59,6.74E+04
344.63,3.15E+04
344.68,1.18E+04
344.72,5.18E+03
344.76,2.23E+03
344.8,9.50E+02
344.85,3.80E+02
344.89,3.17E+02
344.93,5.18E+02
344.97,1.11E+03
345.02,2.98E+03
345.06,6.46E+03
345.1,1.36E+04
345.14,2.80E+04
345.19,6.65E+04
345.23,1.29E+05
345.27,2.43E+05
345.31,4.46E+05
345.36,9.17E+05
345.4,1.59E+06
345.44,2.67E+06
345.48,4.37E+06
345.53,7.81E+06
345.57,1.20E+07
345.61,1.81E+07
345.65,2.65E+07
345.7,4.10E+07
345.74,5.65E+07
345.78,7.58E+07
345.82,9.90E+07
345.87,1.33E+08
345.91,1.64E+08
345.95,1.96E+08
345.99,2.29E+08
346.04,2.67E+08
346.08,2.93E+08
346.12,3.13E+08
346.16,3.26E+08
346.21,3.31E+08
346.25,3.25E+08
346.29,3.11E+08
346.33,2.90E+08
346.38,2.57E+08
346.42,2.29E+08
346.46,2.00E+08
346.5,1.74E+08
346.55,1.47E+08
346.59,1.33E+08
346.63,1.25E+08
346.67,1.24E+08
346.72,1.32E+08
346.76,1.45E+08
346.8,1.63E+08
346.84,1.84E+08
346.89,2.12E+08
346.93,2.32E+08
346.97,2.50E+08
347.01,2.63E+08
347.06,2.70E+08
347.1,2.68E+08
347.14,2.60E+08
347.18,2.46E+08
347.23,2.22E+08
347.27,2.00E+08
347.31,1.77E+08
347.35,1.55E+08
347.4,1.31E+08
347.44,1.17E+08
347.48,1.07E+08
347.52,1.02E+08
347.57,1.03E+08
347.61,1.09E+08
347.65,1.17E+08
347.69,1.28E+08
347.74,1.41E+08
347.78,1.51E+08
347.82,1.58E+08
347.86,1.63E+08
347.91,1.62E+08
347.95,1.58E+08
347.99,1.50E+08
348.03,1.38E+08
348.08,1.20E+08
348.12,1.05E+08
348.16,8.88E+07
348.2,7.33E+07
348.25,5.56E+07
348.29,4.32E+07
348.33,3.28E+07
348.37,2.42E+07
348.42,1.59E+07
348.46,1.11E+07
348.5,7.50E+06
348.54,4.94E+06
348.59,2.83E+06
348.63,1.76E+06
348.67,1.07E+06
348.71,6.29E+05
348.76,3.16E+05
348.8,1.82E+05
348.84,1.11E+05
348.88,8.36E+04
348.93,9.69E+04
348.97,1.49E+05
349.01,2.51E+05
349.05,4.29E+05
349.1,8.20E+05
349.14,1.34E+06
349.18,2.15E+06
349.22,3.35E+06
349.27,5.63E+06
349.31,8.31E+06
349.35,1.20E+07
349.39,1.69E+07
349.44,2.52E+07
349.48,3.39E+07
349.52,4.47E+07
349.56,5.78E+07
349.61,7.81E+07
349.65,9.76E+07
349.69,1.20E+08
349.73,1.47E+08
349.78,1.85E+08
349.82,2.20E+08
349.86,2.58E+08
349.9,3.00E+08
349.95,3.57E+08
349.99,4.03E+08
350.03,4.49E+08
350.07,4.93E+08
350.12,5.41E+08
350.16,5.71E+08
350.2,5.93E+08
350.25,6.06E+08
350.29,6.04E+08
350.33,5.94E+08
350.37,5.75E+08
350.42,5.44E+08
350.46,5.15E+08
350.5,4.85E+08
350.54,4.55E+08
350.59,4.18E+08
350.63,3.91E+08
350.67,3.65E+08
350.71,3.39E+08
350.76,3.06E+08
350.8,2.80E+08
350.84,2.52E+08
350.88,2.24E+08
350.93,1.88E+08
350.97,1.60E+08
351.01,1.34E+08
351.05,1.09E+08
351.1,8.15E+07
351.14,6.30E+07
351.18,4.74E+07
351.22,3.48E+07
351.27,2.29E+07
351.31,1.59E+07
351.35,1.07E+07
351.39,7.07E+06
351.44,4.05E+06
351.48,2.52E+06
351.52,1.53E+06
351.56,9.04E+05
351.61,4.58E+05
351.65,2.68E+05
351.69,1.72E+05
351.73,1.44E+05
351.78,1.98E+05
351.82,3.32E+05
351.86,5.94E+05
351.9,1.06E+06
351.95,2.14E+06
351.99,3.65E+06
352.03,6.06E+06
352.07,9.81E+06
352.12,1.73E+07
352.16,2.64E+07
352.2,3.94E+07
352.24,5.71E+07
352.29,8.78E+07
352.33,1.20E+08
352.37,1.61E+08
352.41,2.09E+08
352.46,2.80E+08
352.5,3.44E+08
352.54,4.12E+08
352.58,4.81E+08
352.63,5.63E+08
352.67,6.20E+08
352.71,6.65E+08
352.75,6.96E+08
352.8,7.10E+08
352.84,7.01E+08
352.88,6.74E+08
352.92,6.32E+08
352.97,5.63E+08
353.01,4.98E+08
353.05,4.30E+08
353.09,3.62E+08
353.14,2.82E+08
353.18,2.25E+08
353.22,1.76E+08
353.26,1.35E+08
353.31,9.63E+07
353.35,7.40E+07
353.39,5.86E+07
353.43,4.90E+07
353.48,4.36E+07
353.52,4.31E+07
353.56,4.52E+07
353.6,4.88E+07
353.65,5.44E+07
353.69,5.91E+07
353.73,6.35E+07
353.77,6.73E+07
353.82,7.12E+07
353.86,7.36E+07
353.9,7.56E+07
353.94,7.76E+07
353.99,8.06E+07
354.03,8.38E+07
354.07,8.79E+07
354.11,9.29E+07
354.16,1.00E+08
354.2,1.07E+08
354.24,1.13E+08
354.28,1.19E+08
354.33,1.25E+08
354.37,1.28E+08
354.41,1.30E+08
354.45,1.31E+08
354.5,1.29E+08
354.54,1.27E+08
354.58,1.26E+08
354.62,1.24E+08
354.67,1.23E+08
354.71,1.23E+08
354.75,1.23E+08
354.79,1.24E+08
354.84,1.25E+08
354.88,1.25E+08
354.92,1.24E+08
354.96,1.21E+08
355.01,1.15E+08
355.05,1.08E+08
355.09,9.87E+07
355.13,8.85E+07
355.18,7.47E+07
355.22,6.36E+07
355.26,5.28E+07
355.3,4.27E+07
355.35,3.17E+07
355.39,2.42E+07
355.43,1.81E+07
355.47,1.32E+07
355.52,8.54E+06
355.56,5.87E+06
355.6,3.94E+06
355.64,2.57E+06
355.69,1.46E+06
355.73,9.00E+05
355.77,5.42E+05
355.81,3.19E+05
355.86,1.60E+05
355.9,9.20E+04
355.94,5.68E+04
355.98,4.36E+04
356.03,5.25E+04
356.07,8.21E+04
356.11,1.40E+05
356.15,2.42E+05
356.2,4.67E+05
356.24,7.71E+05
356.28,1.24E+06
356.32,1.95E+06
356.37,3.31E+06
356.41,4.92E+06
356.45,7.13E+06
356.49,1.01E+07
356.54,1.50E+07
356.58,2.00E+07
356.62,2.60E+07
356.66,3.30E+07
356.71,4.29E+07
356.75,5.15E+07
356.79,6.02E+07
356.83,6.87E+07
356.88,7.82E+07
356.92,8.43E+07
356.96,8.86E+07
357.01,9.11E+07
357.05,9.05E+07
357.09,8.77E+07
357.13,8.29E+07
357.18,7.46E+07
357.22,6.67E+07
357.26,5.81E+07
357.3,4.94E+07
357.35,3.90E+07
357.39,3.15E+07
357.43,2.51E+07
357.47,1.98E+07
357.52,1.50E+07
357.56,1.27E+07
357.6,1.20E+07
357.64,1.29E+07
357.69,1.66E+07
357.73,2.20E+07
357.77,2.98E+07
357.81,4.03E+07
357.86,5.77E+07
357.9,7.52E+07
357.94,9.57E+07
357.98,1.19E+08
358.03,1.51E+08
358.07,1.77E+08
358.11,2.03E+08
358.15,2.28E+08
358.2,2.53E+08
358.24,2.67E+08
358.28,2.76E+08
358.32,2.78E+08
358.37,2.70E+08
358.41,2.57E+08
358.45,2.38E+08
358.49,2.16E+08
358.54,1.84E+08
358.58,1.58E+08
358.62,1.32E+08
358.66,1.07E+08
358.71,8.04E+07
358.75,6.24E+07
358.79,4.77E+07
358.83,3.65E+07
358.88,2.71E+07
358.92,2.32E+07
358.96,2.27E+07
359,2.56E+07
359.05,3.47E+07
359.09,4.68E+07
359.13,6.39E+07
359.17,8.67E+07
359.22,1.24E+08
359.26,1.61E+08
359.3,2.04E+08
359.34,2.54E+08
359.39,3.21E+08
359.43,3.78E+08
359.47,4.34E+08
359.51,4.86E+08
359.56,5.42E+08
359.6,5.76E+08
359.64,5.97E+08
359.68,6.04E+08
359.73,5.93E+08
359.77,5.69E+08
359.81,5.32E+08
359.85,4.86E+08
359.9,4.20E+08
359.94,3.64E+08
359.98,3.07E+08
360.02,2.53E+08
360.07,1.92E+08
360.11,1.50E+08
360.15,1.15E+08
360.19,8.53E+07
360.24,5.70E+07
360.28,4.02E+07
360.32,2.78E+07
360.36,1.89E+07
360.41,1.16E+07
360.45,8.03E+06
360.49,6.09E+06
360.53,5.44E+06
360.58,6.19E+06
360.62,7.99E+06
360.66,1.09E+07
360.7,1.51E+07
360.75,2.24E+07
360.79,2.99E+07
