Wavelength,Spectra,,
354.67,3.94E-07,,
354.71,1.51E-06,,
354.75,5.65E-06,,
354.79,2.06E-05,,
354.84,1.00E-04,,
354.88,3.46E-04,,
354.92,1.16E-03,,
354.96,3.82E-03,,
355.01,1.63E-02,,
355.05,5.03E-02,,
355.09,1.52E-01,,
355.13,4.48E-01,,
355.18,1.67E+00,,
355.22,4.65E+00,,
355.26,1.26E+01,,
355.3,3.35E+01,,
355.35,1.09E+02,,
355.39,2.73E+02,,
355.43,6.66E+02,,
355.47,1.59E+03,,
355.52,4.53E+03,,
355.56,1.02E+04,,
355.6,2.23E+04,,
355.64,4.77E+04,,
355.69,1.19E+05,,
355.73,2.41E+05,,
355.77,4.75E+05,,
355.81,9.13E+05,,
355.86,1.99E+06,,
355.9,3.62E+06,,
355.94,6.42E+06,,
355.98,1.11E+07,,
356.03,2.12E+07,,
356.07,3.46E+07,,
356.11,5.51E+07,,
356.15,8.55E+07,,
356.2,1.43E+08,,
356.24,2.10E+08,,
356.28,3.00E+08,,
356.32,4.19E+08,,
356.37,6.13E+08,,
356.41,8.08E+08,,
356.45,1.04E+09,,
356.49,1.30E+09,,
356.54,1.67E+09,,
356.58,1.98E+09,,
356.62,2.28E+09,,
356.66,2.57E+09,,
356.71,2.88E+09,,
356.75,3.07E+09,,
356.79,3.19E+09,,
356.83,3.23E+09,,
356.88,3.17E+09,,
356.92,3.03E+09,,
356.96,2.83E+09,,
357.01,2.50E+09,,
357.05,2.21E+09,,
357.09,1.90E+09,,
357.13,1.59E+09,,
357.18,1.23E+09,,
357.22,9.78E+08,,
357.26,7.56E+08,,
357.3,5.70E+08,,
357.35,3.86E+08,,
357.39,2.75E+08,,
357.43,1.91E+08,,
357.47,1.29E+08,,
357.52,7.68E+07,,
357.56,4.91E+07,,
357.6,3.07E+07,,
357.64,1.87E+07,,
357.69,9.69E+06,,
357.73,5.58E+06,,
357.77,3.13E+06,,
357.81,1.71E+06,,
357.86,7.78E+05,,
357.9,4.04E+05,,
357.94,2.07E+05,,
357.98,1.10E+05,,
358.03,6.61E+04,,
358.07,7.46E+04,,
358.11,1.24E+05,,
358.15,2.38E+05,,
358.2,5.43E+05,,
358.24,1.03E+06,,
358.28,1.92E+06,,
358.32,3.48E+06,,
358.37,7.07E+06,,
358.41,1.21E+07,,
358.45,2.03E+07,,
358.49,3.31E+07,,
358.54,5.90E+07,,
358.58,9.10E+07,,
358.62,1.37E+08,,
358.66,2.01E+08,,
358.71,3.14E+08,,
358.75,4.36E+08,,
358.79,5.91E+08,,
358.83,7.81E+08,,
358.88,1.07E+09,,
358.92,1.34E+09,,
358.96,1.63E+09,,
359,1.94E+09,,
359.05,2.33E+09,,
359.09,2.62E+09,,
359.13,2.87E+09,,
359.17,3.07E+09,,
359.22,3.23E+09,,
359.26,3.27E+09,,
359.3,3.23E+09,,
359.34,3.11E+09,,
359.39,2.87E+09,,
359.43,2.62E+09,,
359.47,2.33E+09,,
359.51,2.02E+09,,
359.56,1.63E+09,,
359.6,1.34E+09,,
359.64,1.07E+09,,
359.68,8.34E+08,,
359.73,5.91E+08,,
359.77,4.36E+08,,
359.81,3.14E+08,,
359.85,2.21E+08,,
359.9,1.38E+08,,
359.94,9.21E+07,,
359.98,6.10E+07,,
360.02,4.09E+07,,
360.07,2.75E+07,,
360.11,2.43E+07,,
360.15,2.73E+07,,
360.19,3.66E+07,,
360.24,5.92E+07,,
360.28,8.86E+07,,
360.32,1.31E+08,,
360.36,1.90E+08,,
360.41,2.93E+08,,
360.45,4.03E+08,,
360.49,5.41E+08,,
360.53,7.09E+08,,
360.58,9.60E+08,,
360.62,1.19E+09,,
360.66,1.44E+09,,
360.7,1.70E+09,,
360.75,2.02E+09,,
360.79,2.26E+09,,
360.83,2.46E+09,,
360.87,2.61E+09,,
360.92,2.73E+09,,
360.96,2.74E+09,,
361,2.69E+09,,
361.04,2.58E+09,,
361.09,2.36E+09,,
361.13,2.14E+09,,
361.17,1.89E+09,,
361.21,1.63E+09,,
361.26,1.31E+09,,
361.3,1.07E+09,,
361.34,8.54E+08,,
361.38,6.64E+08,,
361.43,4.68E+08,,
361.47,3.45E+08,,
361.51,2.47E+08,,
361.55,1.73E+08,,
361.6,1.07E+08,,
361.64,7.11E+07,,
361.68,4.59E+07,,
361.72,2.90E+07,,
361.77,1.58E+07,,
361.81,9.40E+06,,
361.85,5.48E+06,,
361.89,3.11E+06,,
361.94,1.48E+06,,
361.98,7.99E+05,,
362.02,4.20E+05,,
362.06,2.16E+05,,
362.11,9.43E+04,,
362.15,5.35E+04,,
362.19,4.21E+04,,
362.23,5.46E+04,,
362.28,1.13E+05,,
362.32,2.19E+05,,
362.36,4.22E+05,,
362.4,7.95E+05,,
362.45,1.70E+06,,
362.49,3.04E+06,,
362.53,5.31E+06,,
362.57,9.05E+06,,
362.62,1.70E+07,,
362.66,2.75E+07,,
362.7,4.33E+07,,
362.74,6.66E+07,,
362.79,1.10E+08,,
362.83,1.60E+08,,
362.87,2.28E+08,,
362.91,3.16E+08,,
362.96,4.60E+08,,
363,6.04E+08,,
363.04,7.74E+08,,
363.08,9.68E+08,,
363.13,1.24E+09,,
363.17,1.47E+09,,
363.21,1.70E+09,,
363.25,1.92E+09,,
363.3,2.15E+09,,
363.34,2.30E+09,,
363.38,2.40E+09,,
363.42,2.45E+09,,
363.47,2.42E+09,,
363.51,2.33E+09,,
363.55,2.20E+09,,
363.59,2.02E+09,,
363.64,1.75E+09,,
363.68,1.53E+09,,
363.72,1.30E+09,,
363.77,1.02E+09,,
363.81,8.20E+08,,
363.85,6.44E+08,,
363.89,4.93E+08,,
363.94,3.42E+08,,
363.98,2.48E+08,,
364.02,1.75E+08,,
364.06,1.21E+08,,
364.11,7.38E+07,,
364.15,4.83E+07,,
364.19,3.09E+07,,
364.23,1.93E+07,,
364.28,1.03E+07,,
364.32,6.08E+06,,
364.36,3.51E+06,,
364.4,1.97E+06,,
364.45,9.29E+05,,
364.49,4.95E+05,,
364.53,2.57E+05,,
364.57,1.31E+05,,
364.62,5.40E+04,,
364.66,2.60E+04,,
364.7,1.22E+04,,
364.74,5.57E+03,,
364.79,2.03E+03,,
364.83,8.79E+02,,
364.87,3.72E+02,,
364.91,1.54E+02,,
364.96,4.92E+01,,
365,1.92E+01,,
365.04,7.34E+00,,
365.08,2.73E+00,,
365.13,7.69E-01,,
365.17,2.71E-01,,
365.21,9.35E-02,,
365.25,3.14E-02,,
365.3,7.77E-03,,
365.34,2.47E-03,,
365.38,7.69E-04,,
365.42,2.33E-04,,
365.47,5.07E-05,,
365.51,1.46E-05,,
365.55,4.08E-06,,
365.59,1.12E-06,,
367.17,2.91E-08,,
367.21,1.07E-07,,
367.25,3.80E-07,,
367.29,1.32E-06,,
367.34,6.10E-06,,
367.38,2.02E-05,,
367.42,6.52E-05,,
367.46,2.06E-04,,
367.51,8.37E-04,,
367.55,2.51E-03,,
367.59,7.33E-03,,
367.63,2.09E-02,,
367.68,7.52E-02,,
367.72,2.04E-01,,
367.76,5.39E-01,,
367.8,1.39E+00,,
367.85,4.42E+00,,
367.89,1.08E+01,,
367.93,2.60E+01,,
367.97,6.07E+01,,
368.02,1.70E+02,,
368.06,3.77E+02,,
368.1,8.18E+02,,
368.14,1.73E+03,,
368.19,4.28E+03,,
368.23,8.61E+03,,
368.27,1.69E+04,,
368.31,3.24E+04,,
368.36,7.07E+04,,
368.4,1.29E+05,,
368.44,2.28E+05,,
368.48,3.96E+05,,
368.53,7.63E+05,,
368.57,1.26E+06,,
368.61,2.02E+06,,
368.65,3.17E+06,,
368.7,5.40E+06,,
368.74,8.04E+06,,
368.78,1.17E+07,,
368.82,1.66E+07,,
368.87,2.50E+07,,
368.91,3.37E+07,,
368.95,4.44E+07,,
368.99,5.71E+07,,
369.04,7.57E+07,,
369.08,9.24E+07,,
369.12,1.10E+08,,
369.16,1.28E+08,,
369.21,1.50E+08,,
369.25,1.66E+08,,
369.29,1.79E+08,,
369.33,1.89E+08,,
369.38,1.95E+08,,
369.42,1.95E+08,,
369.46,1.91E+08,,
369.5,1.82E+08,,
369.55,1.66E+08,,
369.59,1.50E+08,,
369.63,1.33E+08,,
369.67,1.15E+08,,
369.72,9.24E+07,,
369.76,7.57E+07,,
369.8,6.06E+07,,
369.84,4.74E+07,,
369.89,3.37E+07,,
369.93,2.50E+07,,
369.97,1.81E+07,,
370.01,1.28E+07,,
370.06,8.04E+06,,
370.1,5.40E+06,,
370.14,3.54E+06,,
370.18,2.27E+06,,
370.23,1.26E+06,,
370.27,7.63E+05,,
370.31,4.53E+05,,
370.35,2.63E+05,,
370.4,1.29E+05,,
370.44,7.07E+04,,
370.48,3.80E+04,,
370.53,1.69E+04,,
370.57,8.61E+03,,
370.61,4.28E+03,,
370.65,2.08E+03,,
370.7,8.18E+02,,
370.74,3.77E+02,,
370.78,1.70E+02,,
370.82,7.48E+01,,
370.87,2.60E+01,,
370.91,1.08E+01,,
370.95,4.42E+00,,
370.99,1.76E+00,,
371.04,5.39E-01,,
371.08,2.04E-01,,
371.12,7.52E-02,,
371.16,2.71E-02,,
371.21,7.33E-03,,
371.25,2.51E-03,,
371.29,8.37E-04,,
371.33,2.73E-04,,
371.38,6.52E-05,,
371.42,2.02E-05,,
371.46,6.10E-06,,
371.5,1.80E-06,,
371.55,3.80E-07,,
371.59,1.07E-07,,
371.63,2.91E-08,,
371.67,9.25E-08,,
371.72,4.51E-07,,
371.76,1.56E-06,,
371.8,5.28E-06,,
371.84,1.75E-05,,
371.89,7.54E-05,,
371.93,2.37E-04,,
371.97,7.27E-04,,
372.01,2.18E-03,,
372.06,8.34E-03,,
372.1,2.38E-02,,
372.14,6.62E-02,,
372.18,1.80E-01,,
372.23,6.10E-01,,
372.27,1.58E+00,,
372.31,3.98E+00,,
372.35,9.84E+00,,
372.4,2.95E+01,,
372.44,6.92E+01,,
372.48,1.59E+02,,
372.52,3.55E+02,,
372.57,9.44E+02,,
372.61,2.01E+03,,
372.65,4.18E+03,,
372.69,8.49E+03,,
372.74,2.00E+04,,
372.78,3.86E+04,,
372.82,7.28E+04,,
372.86,1.34E+05,,
372.91,2.79E+05,,
372.95,4.89E+05,,
372.99,8.38E+05,,
373.03,1.40E+06,,
373.08,2.59E+06,,
373.12,4.11E+06,,
373.16,6.39E+06,,
373.2,9.70E+06,,
373.25,1.58E+07,,
373.29,2.28E+07,,
373.33,3.22E+07,,
373.37,4.43E+07,,
373.42,6.41E+07,,
373.46,8.39E+07,,
373.5,1.07E+08,,
373.54,1.34E+08,,
373.59,1.72E+08,,
373.63,2.04E+08,,
373.67,2.37E+08,,
373.71,2.69E+08,,
373.76,3.05E+08,,
373.8,3.29E+08,,
373.84,3.47E+08,,
373.88,3.57E+08,,
373.93,3.60E+08,,
373.97,3.54E+08,,
374.01,3.41E+08,,
374.05,3.22E+08,,
374.1,2.93E+08,,
374.14,2.67E+08,,
374.18,2.40E+08,,
374.22,2.14E+08,,
374.27,1.84E+08,,
374.31,1.63E+08,,
374.35,1.46E+08,,
374.39,1.32E+08,,
374.44,1.18E+08,,
374.48,1.09E+08,,
374.52,1.02E+08,,
374.56,9.49E+07,,
374.61,8.68E+07,,
374.65,8.02E+07,,
374.69,7.32E+07,,
374.73,6.59E+07,,
374.78,5.63E+07,,
374.82,4.87E+07,,
374.86,4.12E+07,,
374.9,3.42E+07,,
374.95,2.63E+07,,
374.99,2.07E+07,,
375.03,1.60E+07,,
375.07,1.21E+07,,
375.12,8.25E+06,,
375.16,5.93E+06,,
375.2,4.16E+06,,
375.24,2.85E+06,,
375.29,1.73E+06,,
375.33,1.12E+06,,
375.37,7.16E+05,,
375.41,4.46E+05,,
375.46,2.39E+05,,
375.5,1.41E+05,,
375.54,8.17E+04,,
375.58,4.62E+04,,
375.63,2.19E+04,,
375.67,1.18E+04,,
375.71,6.18E+03,,
375.75,3.17E+03,,
375.8,1.33E+03,,
375.84,6.49E+02,,
375.88,3.09E+02,,
375.92,1.44E+02,,
375.97,5.36E+01,,
376.01,2.37E+01,,
376.05,1.03E+01,,
376.09,4.34E+00,,
376.14,1.43E+00,,
376.18,5.74E-01,,
376.22,2.25E-01,,
376.26,8.64E-02,,
376.31,2.53E-02,,
376.35,9.21E-03,,
376.39,3.28E-03,,
376.43,1.14E-03,,
376.48,2.96E-04,,
376.52,9.77E-05,,
376.56,3.16E-05,,
376.6,9.98E-06,,
376.65,2.29E-06,,
376.69,6.87E-07,,
376.73,2.02E-07,,
376.77,5.78E-08,,
376.82,1.12E-08,,
396.59,1.04E-09,,
396.63,3.45E-09,,
396.67,1.13E-08,,
396.71,3.59E-08,,
396.76,1.49E-07,,
396.8,4.55E-07,,
396.84,1.36E-06,,
396.88,3.99E-06,,
396.93,1.49E-05,,
396.97,4.16E-05,,
397.01,1.14E-04,,
397.05,3.08E-04,,
397.1,1.03E-03,,
397.14,2.65E-03,,
397.18,6.68E-03,,
397.22,1.65E-02,,
397.27,4.97E-02,,
397.31,1.17E-01,,
397.35,2.72E-01,,
397.4,7.54E-01,,
397.44,1.67E+00,,
397.48,3.62E+00,,
397.52,7.68E+00,,
397.57,1.92E+01,,
397.61,3.89E+01,,
397.65,7.75E+01,,
397.69,1.51E+02,,
397.74,3.39E+02,,
397.78,6.32E+02,,
397.82,1.16E+03,,
397.86,2.07E+03,,
397.91,4.17E+03,,
397.95,7.13E+03,,
397.99,1.20E+04,,
398.03,1.97E+04,,
398.08,3.56E+04,,
398.12,5.60E+04,,
398.16,8.63E+04,,
398.2,1.30E+05,,
398.25,2.12E+05,,
398.29,3.06E+05,,
398.33,4.33E+05,,
398.37,6.00E+05,,
398.42,8.77E+05,,
398.46,1.16E+06,,
398.5,1.51E+06,,
398.54,1.92E+06,,
398.59,2.53E+06,,
398.63,3.07E+06,,
398.67,3.66E+06,,
398.71,4.28E+06,,
398.76,5.06E+06,,
398.8,5.65E+06,,
398.84,6.18E+06,,
398.88,6.63E+06,,
398.93,7.04E+06,,
398.97,7.22E+06,,
399.01,7.26E+06,,
399.05,7.15E+06,,
399.1,6.82E+06,,
399.14,6.42E+06,,
399.18,5.92E+06,,
399.22,5.36E+06,,
399.27,4.59E+06,,
399.31,3.97E+06,,
399.35,3.36E+06,,
399.39,2.79E+06,,
399.44,2.15E+06,,
399.48,1.71E+06,,
399.52,1.33E+06,,
399.56,1.01E+06,,
399.61,7.01E+05,,
399.65,5.11E+05,,
399.69,3.65E+05,,
399.73,2.55E+05,,
399.78,1.59E+05,,
399.82,1.06E+05,,
399.86,6.97E+04,,
399.9,4.48E+04,,
399.95,2.51E+04,,
399.99,1.54E+04,,
400.03,9.26E+03,,
400.07,5.47E+03,,
400.12,2.75E+03,,
400.16,1.55E+03,,
400.2,8.56E+02,,
400.24,4.64E+02,,
400.29,2.10E+02,,
400.33,1.09E+02,,
400.37,5.51E+01,,
400.41,2.74E+01,,
400.46,1.11E+01,,
400.5,5.29E+00,,
400.54,2.46E+00,,
400.58,1.12E+00,,
400.63,4.10E-01,,
400.67,1.79E-01,,
400.71,7.66E-02,,
400.75,3.21E-02,,
400.8,1.05E-02,,
400.84,4.22E-03,,
400.88,1.66E-03,,
400.92,6.38E-04,,
400.97,1.88E-04,,
401.01,6.91E-05,,
401.05,2.49E-05,,
401.09,8.81E-06,,
401.14,2.33E-06,,
401.18,7.88E-07,,
401.22,2.61E-07,,
401.26,8.47E-08,,
401.31,2.02E-08,,
401.35,6.25E-09,,
401.39,1.90E-09,,
427.07,3.40E-09,,
427.11,1.04E-08,,
427.16,4.10E-08,,
427.2,1.21E-07,,
427.24,3.49E-07,,
427.28,9.91E-07,,
427.33,3.57E-06,,
427.37,9.75E-06,,
427.41,2.62E-05,,
427.45,6.91E-05,,
427.5,2.27E-04,,
427.54,5.76E-04,,
427.58,1.44E-03,,
427.62,3.53E-03,,
427.67,1.06E-02,,
427.71,2.49E-02,,
427.75,5.77E-02,,
427.79,1.32E-01,,
427.84,3.59E-01,,
427.88,7.87E-01,,
427.92,1.69E+00,,
427.96,3.59E+00,,
428.01,8.93E+00,,
428.05,1.82E+01,,
428.09,3.64E+01,,
428.13,7.15E+01,,
428.18,1.62E+02,,
428.22,3.07E+02,,
428.26,5.71E+02,,
428.3,1.04E+03,,
428.35,2.16E+03,,
428.39,3.79E+03,,
428.43,6.55E+03,,
428.47,1.11E+04,,
428.52,2.10E+04,,
428.56,3.43E+04,,
428.6,5.49E+04,,
428.64,8.66E+04,,
428.69,1.49E+05,,
428.73,2.26E+05,,
428.77,3.37E+05,,
428.81,4.93E+05,,
428.86,7.76E+05,,
428.9,1.09E+06,,
428.94,1.51E+06,,
428.98,2.06E+06,,
429.03,2.95E+06,,
429.07,3.86E+06,,
429.11,4.96E+06,,
429.15,6.27E+06,,
429.2,8.19E+06,,
429.24,9.96E+06,,
429.28,1.19E+07,,
429.32,1.40E+07,,
429.37,1.67E+07,,
429.41,1.88E+07,,
429.45,2.09E+07,,
429.49,2.27E+07,,
429.54,2.47E+07,,
429.58,2.59E+07,,
429.62,2.67E+07,,
429.66,2.71E+07,,
429.71,2.69E+07,,
429.75,2.62E+07,,
429.79,2.51E+07,,
429.83,2.36E+07,,
429.88,2.14E+07,,
429.92,1.93E+07,,
429.96,1.72E+07,,
430,1.50E+07,,
430.05,1.24E+07,,
430.09,1.04E+07,,
430.13,8.62E+06,,
430.17,7.00E+06,,
430.22,5.27E+06,,
430.26,4.11E+06,,
430.3,3.16E+06,,
430.34,2.38E+06,,
430.39,1.64E+06,,
430.43,1.19E+06,,
430.47,8.46E+05,,
430.51,5.93E+05,,
430.56,3.71E+05,,
430.6,2.50E+05,,
430.64,1.66E+05,,
430.68,1.08E+05,,
430.73,6.17E+04,,
430.77,3.86E+04,,
430.81,2.38E+04,,
430.85,1.44E+04,,
430.9,7.48E+03,,
430.94,4.35E+03,,
430.98,2.49E+03,,
431.02,1.40E+03,,
431.07,6.64E+02,,
431.11,3.59E+02,,
431.15,1.91E+02,,
431.2,8.44E+01,,
431.24,4.31E+01,,
431.28,2.17E+01,,
431.32,1.07E+01,,
431.37,4.31E+00,,
431.41,2.05E+00,,
431.45,9.55E-01,,
431.49,4.38E-01,,
431.54,1.61E-01,,
431.58,7.10E-02,,
431.62,3.08E-02,,
431.66,1.31E-02,,
431.71,4.40E-03,,
431.75,1.80E-03,,
431.79,7.25E-04,,
431.83,2.87E-04,,
431.88,8.79E-05,,
431.92,3.34E-05,,
431.96,1.25E-05,,
432,4.60E-06,,
432.05,1.28E-06,,
432.09,4.54E-07,,
432.13,1.58E-07,,
432.17,5.38E-08,,
432.22,1.37E-08,,
432.26,4.50E-09,,
433.66,7.33E-10,,
433.7,2.20E-09,,
433.75,8.45E-09,,
433.79,2.44E-08,,
433.83,6.91E-08,,
433.87,1.93E-07,,
433.92,6.78E-07,,
433.96,1.82E-06,,
434,4.81E-06,,
434.04,1.25E-05,,
434.09,4.02E-05,,
434.13,1.00E-04,,
434.17,2.47E-04,,
434.21,5.96E-04,,
434.26,1.76E-03,,
434.3,4.09E-03,,
434.34,9.35E-03,,
434.38,2.10E-02,,
434.43,5.67E-02,,
434.47,1.23E-01,,
434.51,2.62E-01,,
434.55,5.48E-01,,
434.6,1.35E+00,,
434.64,2.72E+00,,
434.68,5.40E+00,,
434.72,1.05E+01,,
434.77,2.37E+01,,
434.81,4.46E+01,,
434.85,8.23E+01,,
434.89,1.50E+02,,
434.94,3.08E+02,,
434.98,5.38E+02,,
435.02,9.26E+02,,
435.06,1.57E+03,,
435.11,2.95E+03,,
435.15,4.80E+03,,
435.19,7.69E+03,,
435.23,1.21E+04,,
435.28,2.09E+04,,
435.32,3.16E+04,,
435.36,4.71E+04,,
435.4,6.91E+04,,
435.45,1.09E+05,,
435.49,1.54E+05,,
435.53,2.13E+05,,
435.57,2.91E+05,,
435.62,4.19E+05,,
435.66,5.51E+05,,
435.7,7.12E+05,,
435.74,9.04E+05,,
435.79,1.19E+06,,
435.83,1.46E+06,,
435.87,1.75E+06,,
435.91,2.08E+06,,
435.96,2.50E+06,,
436,2.85E+06,,
436.04,3.19E+06,,
436.08,3.52E+06,,
436.13,3.87E+06,,
436.17,4.11E+06,,
436.21,4.28E+06,,
436.25,4.39E+06,,
436.3,4.43E+06,,
436.34,4.37E+06,,
436.38,4.25E+06,,
436.42,4.05E+06,,
436.47,3.74E+06,,
436.51,3.44E+06,,
436.55,3.11E+06,,
436.59,2.76E+06,,
436.64,2.33E+06,,
436.68,1.99E+06,,
436.72,1.68E+06,,
436.76,1.39E+06,,
436.81,1.07E+06,,
436.85,8.53E+05,,
436.89,6.69E+05,,
436.93,5.15E+05,,
436.98,3.63E+05,,
437.02,2.70E+05,,
437.06,1.97E+05,,
437.1,1.41E+05,,
437.15,9.10E+04,,
437.19,6.29E+04,,
437.23,4.27E+04,,
437.27,2.85E+04,,
437.32,1.68E+04,,
437.36,1.08E+04,,
437.4,6.85E+03,,
437.44,4.26E+03,,
437.49,2.30E+03,,
437.53,1.38E+03,,
437.57,8.10E+02,,
437.61,4.69E+02,,
437.66,2.31E+02,,
437.7,1.29E+02,,
437.74,7.07E+01,,
437.78,3.81E+01,,
437.83,1.72E+01,,
437.87,8.93E+00,,
437.91,4.56E+00,,
437.96,1.92E+00,,
438,9.44E-01,,
438.04,4.56E-01,,
438.08,2.17E-01,,
438.13,8.36E-02,,
438.17,3.82E-02,,
438.21,1.72E-02,,
438.25,7.61E-03,,
438.3,2.68E-03,,
438.34,1.14E-03,,
438.38,4.79E-04,,
438.42,1.97E-04,,
438.47,6.36E-05,,
438.51,2.52E-05,,
438.55,9.84E-06,,
438.59,3.78E-06,,
438.64,1.11E-06,,
438.68,4.11E-07,,
438.72,1.49E-07,,
438.76,5.33E-08,,
438.81,1.44E-08,,
438.85,4.94E-09,,
438.89,1.67E-09,,
438.93,5.56E-10,,
470.01,2.53E-09,,
470.05,6.91E-09,,
470.1,2.38E-08,,
470.14,6.30E-08,,
470.18,1.64E-07,,
470.22,4.23E-07,,
470.27,1.35E-06,,
470.31,3.36E-06,,
470.35,8.25E-06,,
470.39,2.00E-05,,
470.44,5.91E-05,,
470.48,1.38E-04,,
470.52,3.20E-04,,
470.56,7.28E-04,,
470.61,2.00E-03,,
470.65,4.40E-03,,
470.69,9.57E-03,,
470.73,2.05E-02,,
470.78,5.21E-02,,
470.82,1.08E-01,,
470.86,2.21E-01,,
470.9,4.46E-01,,
470.95,1.05E+00,,
470.99,2.05E+00,,
471.03,3.95E+00,,
471.07,7.49E+00,,
471.12,1.63E+01,,
471.16,3.00E+01,,
471.2,5.44E+01,,
471.24,9.71E+01,,
471.29,1.96E+02,,
471.33,3.39E+02,,
471.37,5.79E+02,,
471.41,9.72E+02,,
471.46,1.82E+03,,
471.5,2.96E+03,,
471.54,4.75E+03,,
471.59,8.41E+03,,
471.63,1.31E+04,,
471.67,2.00E+04,,
471.71,3.02E+04,,
471.76,4.94E+04,,
471.8,7.22E+04,,
471.84,1.04E+05,,
471.88,1.48E+05,,
471.93,2.25E+05,,
471.97,3.09E+05,,
472.01,4.18E+05,,
472.05,5.59E+05,,
472.1,7.87E+05,,
472.14,1.02E+06,,
472.18,1.30E+06,,
472.22,1.63E+06,,
472.27,2.13E+06,,
472.31,2.60E+06,,
472.35,3.11E+06,,
472.39,3.69E+06,,
472.44,4.46E+06,,
472.48,5.11E+06,,
472.52,5.77E+06,,
472.56,6.42E+06,,
472.61,7.19E+06,,
472.65,7.76E+06,,
472.69,8.24E+06,,
472.73,8.64E+06,,
472.78,8.97E+06,,
472.82,9.10E+06,,
472.86,9.10E+06,,
472.9,8.97E+06,,
472.95,8.64E+06,,
472.99,8.24E+06,,
473.03,7.76E+06,,
473.07,7.19E+06,,
473.12,6.42E+06,,
473.16,5.77E+06,,
473.2,5.11E+06,,
473.24,4.46E+06,,
473.29,3.69E+06,,
473.33,3.11E+06,,
473.37,2.60E+06,,
473.41,2.13E+06,,
473.46,1.63E+06,,
473.5,1.30E+06,,
473.54,1.02E+06,,
473.58,7.87E+05,,
473.63,5.59E+05,,
473.67,4.18E+05,,
473.71,3.09E+05,,
473.75,2.25E+05,,
473.8,1.48E+05,,
473.84,1.04E+05,,
473.88,7.22E+04,,
473.92,4.94E+04,,
473.97,3.02E+04,,
474.01,2.00E+04,,
474.05,1.31E+04,,
474.09,8.41E+03,,
474.14,4.75E+03,,
474.18,2.97E+03,,
474.22,1.82E+03,,
474.26,1.11E+03,,
474.31,5.83E+02,,
474.35,3.47E+02,,
474.39,2.10E+02,,
474.43,1.35E+02,,
474.48,1.01E+02,,
474.52,1.11E+02,,
474.56,1.53E+02,,
474.6,2.36E+02,,
474.65,4.26E+02,,
474.69,6.85E+02,,
474.73,1.09E+03,,
474.77,1.71E+03,,
474.82,2.95E+03,,
474.86,4.49E+03,,
474.9,6.74E+03,,
474.94,9.97E+03,,
474.99,1.60E+04,,
475.03,2.29E+04,,
475.07,3.23E+04,,
475.11,4.50E+04,,
475.16,6.68E+04,,
475.2,9.02E+04,,
475.24,1.20E+05,,
475.28,1.58E+05,,
475.33,2.17E+05,,
475.37,2.76E+05,,
475.41,3.46E+05,,
475.45,4.28E+05,,
475.5,5.46E+05,,
475.54,6.54E+05,,
475.58,7.72E+05,,
475.62,8.98E+05,,
475.67,1.07E+06,,
475.71,1.20E+06,,
475.75,1.34E+06,,
475.79,1.46E+06,,
475.84,1.61E+06,,
475.88,1.71E+06,,
475.92,1.79E+06,,
475.96,1.85E+06,,
476.01,1.88E+06,,
476.05,1.88E+06,,
476.09,1.86E+06,,
476.13,1.81E+06,,
476.18,1.71E+06,,
476.22,1.61E+06,,
476.26,1.49E+06,,
476.3,1.37E+06,,
476.35,1.20E+06,,
476.39,1.07E+06,,
476.43,9.31E+05,,
476.47,8.03E+05,,
476.52,6.54E+05,,
476.56,5.46E+05,,
476.6,4.50E+05,,
476.64,3.65E+05,,
476.69,2.76E+05,,
476.73,2.17E+05,,
476.77,1.68E+05,,
476.81,1.29E+05,,
476.86,9.02E+04,,
476.9,6.68E+04,,
476.94,4.88E+04,,
476.98,3.52E+04,,
477.03,2.29E+04,,
477.07,1.60E+04,,
477.11,1.10E+04,,
477.15,7.44E+03,,
477.2,4.49E+03,,
477.24,2.95E+03,,
477.28,1.91E+03,,
477.32,1.22E+03,,
477.37,6.83E+02,,
477.41,4.22E+02,,
477.45,2.58E+02,,
477.49,1.55E+02,,
477.54,8.05E+01,,
477.58,4.69E+01,,
477.62,2.69E+01,,
477.66,1.53E+01,,
477.71,7.35E+00,,
477.75,4.03E+00,,
477.79,2.18E+00,,
477.83,1.16E+00,,
477.88,5.20E-01,,
477.92,2.69E-01,,
477.96,1.37E-01,,
478,6.88E-02,,
478.05,2.85E-02,,
478.09,1.39E-02,,
478.13,6.66E-03,,
478.17,3.15E-03,,
478.22,1.21E-03,,
478.26,5.56E-04,,
478.3,2.51E-04,,
478.35,9.12E-05,,
478.39,3.99E-05,,
478.43,1.72E-05,,
478.47,7.33E-06,,
478.52,2.47E-06,,
478.56,1.02E-06,,
478.6,4.14E-07,,
478.64,1.66E-07,,
478.69,5.19E-08,,
478.73,2.01E-08,,
478.77,7.71E-09,,
478.81,2.91E-09,,
478.86,8.44E-10,,
478.9,3.09E-10,,
