Wavelength,Spectra
348.8,8.25E-07
348.84,3.21E-06
348.88,1.22E-05
348.93,6.19E-05
348.97,2.21E-04
349.01,7.70E-04
349.05,2.61E-03
349.1,1.16E-02
349.14,3.71E-02
349.18,1.16E-01
349.22,3.51E-01
349.27,1.36E+00
349.31,3.89E+00
349.35,1.09E+01
349.39,2.95E+01
349.44,9.93E+01
349.48,2.55E+02
349.52,6.37E+02
349.56,1.55E+03
349.61,4.55E+03
349.65,1.05E+04
349.69,2.34E+04
349.73,5.10E+04
349.78,1.30E+05
349.82,2.68E+05
349.86,5.37E+05
349.9,1.05E+06
349.95,2.33E+06
349.99,4.30E+06
350.03,7.71E+06
350.07,1.35E+07
350.12,2.61E+07
350.16,4.31E+07
350.2,6.92E+07
350.25,1.21E+08
350.29,1.83E+08
350.33,2.70E+08
350.37,3.89E+08
350.42,5.91E+08
350.46,8.02E+08
350.5,1.06E+09
350.54,1.37E+09
350.59,1.81E+09
350.63,2.20E+09
350.67,2.60E+09
350.71,3.00E+09
350.76,3.46E+09
350.8,3.76E+09
350.84,3.99E+09
350.88,4.12E+09
350.93,4.14E+09
350.97,4.03E+09
351.01,3.83E+09
351.05,3.54E+09
351.1,3.10E+09
351.14,2.70E+09
351.18,2.30E+09
351.22,1.90E+09
351.27,1.45E+09
351.31,1.13E+09
351.35,8.62E+08
351.39,6.39E+08
351.44,4.24E+08
351.48,2.97E+08
351.52,2.02E+08
351.56,1.34E+08
351.61,7.76E+07
351.65,4.86E+07
351.69,2.97E+07
351.73,1.77E+07
351.78,8.89E+06
351.82,4.98E+06
351.86,2.72E+06
351.9,1.45E+06
351.95,6.36E+05
351.99,3.20E+05
352.03,1.56E+05
352.07,7.46E+04
352.12,2.85E+04
352.16,1.28E+04
352.2,5.61E+03
352.24,2.40E+03
352.29,7.98E+02
352.33,3.21E+02
352.37,1.26E+02
352.41,4.82E+01
352.46,1.40E+01
352.5,5.04E+00
352.54,1.77E+00
352.58,6.06E-01
352.63,1.53E-01
352.67,4.94E-02
352.71,1.55E-02
352.75,4.76E-03
352.8,1.05E-03
352.84,3.03E-04
352.88,8.53E-05
352.92,2.34E-05
352.97,4.49E-06
353.01,1.16E-06
354.71,1.93E-06
354.75,7.31E-06
354.79,2.70E-05
354.84,1.34E-04
354.88,4.66E-04
354.92,1.59E-03
354.96,5.27E-03
355.01,2.28E-02
355.05,7.15E-02
355.09,2.19E-01
355.13,6.52E-01
355.18,2.47E+00
355.22,6.96E+00
355.26,1.91E+01
355.3,5.13E+01
355.35,1.70E+02
355.39,4.31E+02
355.43,1.06E+03
355.47,2.57E+03
355.52,7.43E+03
355.56,1.69E+04
355.6,3.76E+04
355.64,8.14E+04
355.69,2.07E+05
355.73,4.23E+05
355.77,8.43E+05
355.81,1.64E+06
355.86,3.64E+06
355.9,6.70E+06
355.94,1.20E+07
355.98,2.10E+07
356.03,4.08E+07
356.07,6.75E+07
356.11,1.09E+08
356.15,1.71E+08
356.2,2.90E+08
356.24,4.31E+08
356.28,6.25E+08
356.32,8.83E+08
356.37,1.31E+09
356.41,1.75E+09
356.45,2.28E+09
356.49,2.90E+09
356.54,3.77E+09
356.58,4.52E+09
356.62,5.29E+09
356.66,6.04E+09
356.71,6.87E+09
356.75,7.41E+09
356.79,7.79E+09
356.83,7.99E+09
356.88,7.96E+09
356.92,7.71E+09
356.96,7.29E+09
357.01,6.56E+09
357.05,5.85E+09
357.09,5.10E+09
357.13,4.33E+09
357.18,3.41E+09
357.22,2.74E+09
357.26,2.14E+09
357.3,1.63E+09
357.35,1.13E+09
357.39,8.12E+08
357.43,5.71E+08
357.47,3.92E+08
357.52,2.36E+08
357.56,1.53E+08
357.6,9.67E+07
357.64,5.96E+07
357.69,3.14E+07
357.73,1.83E+07
357.77,1.04E+07
357.81,5.77E+06
357.86,2.66E+06
357.9,1.39E+06
357.94,7.11E+05
357.98,3.54E+05
358.03,1.43E+05
358.07,6.73E+04
358.11,3.09E+04
358.15,1.38E+04
358.2,4.88E+03
358.24,2.06E+03
358.28,8.51E+02
358.32,3.42E+02
358.37,1.06E+02
358.41,4.02E+01
358.45,1.49E+01
358.49,5.39E+00
358.54,1.46E+00
358.58,4.98E-01
358.62,1.66E-01
358.66,5.38E-02
358.71,1.27E-02
358.75,3.91E-03
358.79,1.17E-03
358.83,3.42E-04
358.88,7.08E-05
358.92,1.95E-05
358.96,5.25E-06
359,1.38E-06
363.68,1.21E-06
363.72,4.49E-06
363.77,2.23E-05
363.81,7.82E-05
363.85,2.68E-04
363.89,8.95E-04
363.94,3.92E-03
363.98,1.24E-02
364.02,3.84E-02
364.06,1.16E-01
364.11,4.46E-01
364.15,1.28E+00
364.19,3.57E+00
364.23,9.75E+00
364.28,3.31E+01
364.32,8.55E+01
364.36,2.16E+02
364.4,5.32E+02
364.45,1.59E+03
364.49,3.71E+03
364.53,8.47E+03
364.57,1.89E+04
364.62,4.96E+04
364.66,1.05E+05
364.7,2.16E+05
364.74,4.34E+05
364.79,1.01E+06
364.83,1.92E+06
364.87,3.57E+06
364.91,6.50E+06
364.96,1.33E+07
365,2.28E+07
365.04,3.84E+07
365.08,6.31E+07
365.13,1.13E+08
365.17,1.76E+08
365.21,2.68E+08
365.25,3.98E+08
365.3,6.29E+08
365.34,8.85E+08
365.38,1.21E+09
365.42,1.63E+09
365.47,2.27E+09
365.51,2.88E+09
365.55,3.57E+09
365.59,4.33E+09
365.64,5.31E+09
365.68,6.10E+09
365.72,6.83E+09
365.76,7.47E+09
365.81,8.08E+09
365.85,8.37E+09
365.89,8.48E+09
365.93,8.37E+09
365.98,7.98E+09
366.02,7.47E+09
366.06,6.83E+09
366.1,6.10E+09
366.15,5.12E+09
366.19,4.33E+09
366.23,3.57E+09
366.27,2.88E+09
366.32,2.13E+09
366.36,1.63E+09
366.4,1.21E+09
366.44,8.85E+08
366.49,5.76E+08
366.53,3.98E+08
366.57,2.69E+08
366.61,1.79E+08
366.66,1.07E+08
366.7,7.30E+07
366.74,5.55E+07
366.78,5.16E+07
366.83,6.49E+07
366.87,9.17E+07
366.91,1.36E+08
366.95,2.04E+08
367,3.32E+08
367.04,4.78E+08
367.08,6.73E+08
367.12,9.27E+08
367.17,1.34E+09
367.21,1.74E+09
367.25,2.22E+09
367.29,2.77E+09
367.34,3.52E+09
367.38,4.15E+09
367.42,4.79E+09
367.46,5.39E+09
367.51,6.05E+09
367.55,6.45E+09
367.59,6.72E+09
367.63,6.85E+09
367.68,6.77E+09
367.72,6.53E+09
367.76,6.16E+09
367.8,5.67E+09
367.85,4.94E+09
367.89,4.31E+09
367.93,3.68E+09
367.97,3.06E+09
368.02,2.35E+09
368.06,1.86E+09
368.1,1.43E+09
368.14,1.08E+09
368.19,7.31E+08
368.23,5.21E+08
368.27,3.63E+08
368.31,2.47E+08
368.36,1.48E+08
368.4,9.54E+07
368.44,6.01E+07
368.48,3.70E+07
368.53,1.95E+07
368.57,1.14E+07
368.61,6.49E+06
368.65,3.61E+06
368.7,1.68E+06
368.74,8.87E+05
368.78,4.57E+05
368.82,2.31E+05
368.87,9.59E+04
368.91,4.88E+04
368.95,2.93E+04
368.99,2.76E+04
369.04,4.93E+04
369.08,9.55E+04
369.12,1.89E+05
369.16,3.68E+05
369.21,8.24E+05
369.25,1.53E+06
369.29,2.77E+06
369.33,4.91E+06
369.38,9.72E+06
369.42,1.63E+07
369.46,2.68E+07
369.5,4.30E+07
369.55,7.52E+07
369.59,1.14E+08
369.63,1.70E+08
369.67,2.47E+08
369.72,3.81E+08
369.76,5.26E+08
369.8,7.08E+08
369.84,9.31E+08
369.89,1.27E+09
369.93,1.59E+09
369.97,1.93E+09
370.01,2.30E+09
370.06,2.77E+09
370.1,3.13E+09
370.14,3.46E+09
370.18,3.73E+09
370.23,3.97E+09
370.27,4.07E+09
370.31,4.07E+09
370.35,3.97E+09
370.4,3.73E+09
370.44,3.46E+09
370.48,3.13E+09
370.53,2.68E+09
370.57,2.30E+09
370.61,1.93E+09
370.65,1.59E+09
370.7,1.20E+09
370.74,9.31E+08
370.78,7.08E+08
370.82,5.26E+08
370.87,3.51E+08
370.91,2.47E+08
370.95,1.70E+08
370.99,1.14E+08
371.04,6.74E+07
371.08,4.30E+07
371.12,2.68E+07
371.16,1.63E+07
371.21,8.50E+06
371.25,4.91E+06
371.29,2.77E+06
371.33,1.53E+06
371.38,7.03E+05
371.42,3.68E+05
371.46,1.88E+05
371.5,9.40E+04
371.55,3.82E+04
371.59,1.81E+04
371.63,8.37E+03
371.67,3.79E+03
371.72,1.36E+03
371.76,5.83E+02
371.8,2.45E+02
371.84,1.00E+02
371.89,3.18E+01
371.93,1.23E+01
371.97,4.68E+00
372.01,1.74E+00
372.06,4.87E-01
372.1,1.71E-01
372.14,5.89E-02
372.18,1.98E-02
372.23,4.89E-03
372.27,1.56E-03
372.31,4.85E-04
372.35,1.48E-04
372.4,3.23E-05
372.44,9.31E-06
372.48,2.62E-06
372.52,7.23E-07
382.56,9.66E-07
382.6,3.33E-06
382.64,1.12E-05
382.68,3.70E-05
382.73,1.60E-04
382.77,5.01E-04
382.81,1.54E-03
382.85,4.64E-03
382.9,1.78E-02
382.94,5.12E-02
382.98,1.44E-01
383.02,3.94E-01
383.07,1.35E+00
383.11,3.53E+00
383.15,9.04E+00
383.19,2.26E+01
383.24,6.92E+01
383.28,1.65E+02
383.32,3.85E+02
383.36,8.81E+02
383.41,2.40E+03
383.45,5.22E+03
383.49,1.11E+04
383.53,2.32E+04
383.58,5.63E+04
383.62,1.12E+05
383.66,2.17E+05
383.7,4.13E+05
383.75,8.95E+05
383.79,1.62E+06
383.83,2.88E+06
383.87,4.99E+06
383.92,9.63E+06
383.96,1.59E+07
384,2.57E+07
384.05,4.55E+07
384.09,7.02E+07
384.13,1.06E+08
384.17,1.56E+08
384.22,2.46E+08
384.26,3.46E+08
384.3,4.76E+08
384.34,6.40E+08
384.39,9.00E+08
384.43,1.15E+09
384.47,1.45E+09
384.51,1.78E+09
384.56,2.23E+09
384.6,2.61E+09
384.64,2.98E+09
384.68,3.34E+09
384.73,3.74E+09
384.77,3.99E+09
384.81,4.16E+09
384.85,4.25E+09
384.9,4.24E+09
384.94,4.13E+09
384.98,3.93E+09
385.02,3.66E+09
385.07,3.26E+09
385.11,2.89E+09
385.15,2.51E+09
385.19,2.14E+09
385.24,1.69E+09
385.28,1.37E+09
385.32,1.09E+09
385.36,8.43E+08
385.41,5.96E+08
385.45,4.40E+08
385.49,3.18E+08
385.53,2.25E+08
385.58,1.42E+08
385.62,9.56E+07
385.66,6.31E+07
385.7,4.07E+07
385.75,2.29E+07
385.79,1.41E+07
385.83,8.47E+06
385.87,4.99E+06
385.92,2.50E+06
385.96,1.41E+06
386,7.80E+05
386.04,4.35E+05
386.09,2.38E+05
386.13,2.01E+05
386.17,2.58E+05
386.21,4.28E+05
386.26,9.02E+05
386.3,1.64E+06
386.34,2.95E+06
386.38,5.18E+06
386.43,1.02E+07
386.47,1.71E+07
386.51,2.81E+07
386.55,4.51E+07
386.6,7.92E+07
386.64,1.21E+08
386.68,1.82E+08
386.72,2.67E+08
386.77,4.18E+08
386.81,5.85E+08
386.85,8.02E+08
386.89,1.08E+09
386.94,1.51E+09
386.98,1.92E+09
387.02,2.41E+09
387.06,2.95E+09
387.11,3.68E+09
387.15,4.30E+09
387.19,4.91E+09
387.23,5.49E+09
387.28,6.13E+09
387.32,6.53E+09
387.36,6.82E+09
387.4,6.97E+09
387.45,6.94E+09
387.49,6.76E+09
387.53,6.44E+09
387.57,6.01E+09
387.62,5.35E+09
387.66,4.76E+09
387.7,4.14E+09
387.74,3.53E+09
387.79,2.81E+09
387.83,2.28E+09
387.87,1.81E+09
387.91,1.41E+09
387.96,1.00E+09
388,7.43E+08
388.04,5.39E+08
388.08,3.83E+08
388.13,2.43E+08
388.17,1.65E+08
388.21,1.09E+08
388.25,7.09E+07
388.3,4.01E+07
388.34,2.48E+07
388.38,1.51E+07
388.42,8.92E+06
388.47,4.51E+06
388.51,2.55E+06
388.55,1.41E+06
388.59,7.64E+05
388.64,3.45E+05
388.68,1.78E+05
388.72,9.00E+04
388.76,4.45E+04
388.81,1.79E+04
388.85,8.46E+03
388.89,3.90E+03
388.93,1.76E+03
388.98,6.35E+02
389.02,2.73E+02
389.06,1.15E+02
389.1,4.76E+01
389.15,1.53E+01
389.19,6.01E+00
389.23,2.32E+00
389.27,8.73E-01
389.32,2.50E-01
389.36,9.00E-02
389.4,3.17E-02
389.44,1.09E-02
389.49,2.79E-03
389.53,9.16E-04
389.57,2.94E-04
389.61,9.26E-05
389.66,2.12E-05
389.7,6.35E-06
389.74,1.86E-06
400.88,5.56E-07
400.92,1.81E-06
400.97,7.70E-06
401.01,2.40E-05
401.05,7.33E-05
401.09,2.19E-04
401.14,8.41E-04
401.18,2.41E-03
401.22,6.77E-03
401.26,1.86E-02
401.31,6.43E-02
401.35,1.70E-01
401.39,4.38E-01
401.43,1.11E+00
401.48,3.45E+00
401.52,8.36E+00
401.56,1.99E+01
401.6,4.63E+01
401.65,1.30E+02
401.69,2.89E+02
401.73,6.32E+02
401.77,1.35E+03
401.82,3.42E+03
401.86,7.01E+03
401.9,1.41E+04
401.94,2.78E+04
401.99,6.31E+04
402.03,1.19E+05
402.07,2.20E+05
402.11,3.99E+05
402.16,8.17E+05
402.2,1.42E+06
402.24,2.41E+06
402.28,4.02E+06
402.33,7.41E+06
402.37,1.18E+07
402.41,1.85E+07
402.45,2.84E+07
402.5,4.71E+07
402.54,6.92E+07
402.58,9.95E+07
402.62,1.40E+08
402.67,2.10E+08
402.71,2.84E+08
402.75,3.75E+08
402.79,4.87E+08
402.84,6.56E+08
402.88,8.15E+08
402.92,9.92E+08
402.96,1.18E+09
403.01,1.44E+09
403.05,1.64E+09
403.09,1.84E+09
403.13,2.02E+09
403.18,2.21E+09
403.22,2.32E+09
403.26,2.39E+09
403.3,2.41E+09
403.35,2.37E+09
403.39,2.29E+09
403.43,2.17E+09
403.47,2.02E+09
403.52,1.79E+09
403.56,1.59E+09
403.6,1.39E+09
403.64,1.18E+09
403.69,9.46E+08
403.73,7.73E+08
403.77,6.20E+08
403.81,4.87E+08
403.86,3.51E+08
403.9,2.64E+08
403.94,1.94E+08
403.98,1.40E+08
404.03,9.10E+07
404.07,6.30E+07
404.11,4.27E+07
404.16,2.55E+07
404.2,1.66E+07
404.24,1.05E+07
404.28,6.57E+06
404.33,3.54E+06
404.37,2.11E+06
404.41,1.24E+06
404.45,7.09E+05
404.5,3.45E+05
404.54,1.89E+05
404.58,1.02E+05
404.62,5.37E+04
404.67,2.35E+04
404.71,1.19E+04
404.75,5.87E+03
404.79,2.85E+03
404.84,1.12E+03
404.88,5.21E+02
404.92,2.37E+02
404.96,1.06E+02
405.01,3.75E+01
405.05,1.60E+01
405.09,6.71E+00
405.13,2.76E+00
405.18,8.81E-01
405.22,3.46E-01
405.26,1.33E-01
405.3,5.03E-02
405.35,1.45E-02
405.39,5.24E-03
405.43,1.86E-03
405.47,6.44E-04
405.52,1.67E-04
405.56,5.55E-05
405.6,1.81E-05
405.64,5.78E-06
405.69,1.35E-06
405.73,4.13E-07
