Wavelength,Spectra,,
252.8,2.76E-05,,
252.84,1.76E-04,,
252.88,1.07E-03,,
252.93,9.57E-03,,
252.97,5.21E-02,,
253.01,2.70E-01,,
253.05,1.33E+00,,
253.1,9.12E+00,,
253.14,4.03E+01,,
253.18,1.69E+02,,
253.22,6.75E+02,,
253.27,3.56E+03,,
253.31,1.27E+04,,
253.35,4.33E+04,,
253.39,1.40E+05,,
253.44,5.68E+05,,
253.48,1.65E+06,,
253.52,4.54E+06,,
253.56,1.19E+07,,
253.61,3.71E+07,,
253.65,8.71E+07,,
253.69,1.95E+08,,
253.73,4.14E+08,,
253.78,9.91E+08,,
253.82,1.89E+09,,
253.86,3.41E+09,,
253.9,5.88E+09,,
253.95,1.08E+10,,
253.99,1.67E+10,,
254.03,2.45E+10,,
254.07,3.42E+10,,
254.12,4.85E+10,,
254.16,6.06E+10,,
254.2,7.20E+10,,
254.24,8.15E+10,,
254.29,8.87E+10,,
254.33,8.98E+10,,
254.37,8.66E+10,,
254.41,7.94E+10,,
254.46,6.65E+10,,
254.5,5.45E+10,,
254.54,4.26E+10,,
254.58,3.16E+10,,
254.63,2.04E+10,,
254.67,1.35E+10,,
254.71,8.57E+09,,
254.75,5.16E+09,,
254.8,2.55E+09,,
254.84,1.38E+09,,
254.88,7.05E+08,,
254.92,3.44E+08,,
254.97,1.31E+08,,
255.01,5.72E+07,,
255.05,2.38E+07,,
255.09,9.40E+06,,
255.14,2.75E+06,,
255.18,9.73E+05,,
255.22,3.28E+05,,
255.26,1.05E+05,,
255.31,2.36E+04,,
255.35,6.77E+03,,
255.39,1.85E+03,,
255.43,4.80E+02,,
255.48,8.30E+01,,
255.52,1.93E+01,,
255.56,4.26E+00,,
255.6,8.97E-01,,
255.65,1.19E-01,,
255.69,2.25E-02,,
255.73,4.03E-03,,
255.77,6.87E-04,,
255.82,7.02E-05,,
255.86,1.07E-05,,
259.43,1.35E-05,,
259.47,8.31E-05,,
259.52,7.57E-04,,
259.56,4.20E-03,,
259.6,2.23E-02,,
259.64,1.13E-01,,
259.69,8.00E-01,,
259.73,3.64E+00,,
259.77,1.58E+01,,
259.81,6.54E+01,,
259.86,3.62E+02,,
259.9,1.35E+03,,
259.94,4.79E+03,,
259.98,1.62E+04,,
260.03,7.00E+04,,
260.07,2.14E+05,,
260.11,6.22E+05,,
260.15,1.73E+06,,
260.2,5.80E+06,,
260.24,1.45E+07,,
260.28,3.46E+07,,
260.32,7.86E+07,,
260.37,2.06E+08,,
260.41,4.21E+08,,
260.45,8.22E+08,,
260.49,1.53E+09,,
260.54,3.12E+09,,
260.58,5.24E+09,,
260.62,8.38E+09,,
260.66,1.28E+10,,
260.71,2.03E+10,,
260.75,2.79E+10,,
260.79,3.65E+10,,
260.83,4.56E+10,,
260.88,5.65E+10,,
260.92,6.35E+10,,
260.96,6.81E+10,,
261,6.98E+10,,
261.05,6.72E+10,,
261.09,6.19E+10,,
261.13,5.44E+10,,
261.17,4.56E+10,,
261.22,3.43E+10,,
261.26,2.59E+10,,
261.3,1.86E+10,,
261.34,1.28E+10,,
261.39,7.48E+09,,
261.43,4.62E+09,,
261.47,2.72E+09,,
261.51,1.53E+09,,
261.56,6.99E+08,,
261.6,3.54E+08,,
261.64,1.71E+08,,
261.68,7.86E+07,,
261.73,2.79E+07,,
261.77,1.16E+07,,
261.81,4.58E+06,,
261.85,1.73E+06,,
261.9,4.78E+05,,
261.94,1.62E+05,,
261.98,5.26E+04,,
262.02,1.62E+04,,
262.07,3.50E+03,,
262.11,9.74E+02,,
262.15,2.58E+02,,
262.19,6.54E+01,,
262.24,1.10E+01,,
262.28,2.50E+00,,
262.32,5.43E-01,,
262.36,1.13E-01,,
262.41,1.48E-02,,
262.45,2.75E-03,,
262.49,4.89E-04,,
262.53,8.31E-05,,
262.58,8.48E-06,,
263.09,4.32E-06,,
263.13,2.66E-05,,
263.17,1.56E-04,,
263.22,1.34E-03,,
263.26,7.07E-03,,
263.3,3.58E-02,,
263.34,1.73E-01,,
263.39,1.16E+00,,
263.43,5.07E+00,,
263.47,2.11E+01,,
263.51,8.42E+01,,
263.56,4.44E+02,,
263.6,1.59E+03,,
263.64,5.47E+03,,
263.68,1.79E+04,,
263.73,7.42E+04,,
263.77,2.20E+05,,
263.81,6.21E+05,,
263.85,1.68E+06,,
263.9,5.44E+06,,
263.94,1.33E+07,,
263.98,3.09E+07,,
264.02,6.86E+07,,
264.07,1.75E+08,,
264.11,3.51E+08,,
264.15,6.72E+08,,
264.19,1.23E+09,,
264.24,2.46E+09,,
264.28,4.07E+09,,
264.32,6.42E+09,,
264.36,9.68E+09,,
264.41,1.52E+10,,
264.45,2.07E+10,,
264.49,2.69E+10,,
264.53,3.34E+10,,
264.58,4.10E+10,,
264.62,4.60E+10,,
264.66,4.93E+10,,
264.7,5.04E+10,,
264.75,4.86E+10,,
264.79,4.49E+10,,
264.83,3.96E+10,,
264.87,3.34E+10,,
264.92,2.53E+10,,
264.96,1.92E+10,,
265,1.40E+10,,
265.04,9.68E+09,,
265.09,5.75E+09,,
265.13,3.60E+09,,
265.17,2.15E+09,,
265.21,1.23E+09,,
265.26,5.74E+08,,
265.3,2.96E+08,,
265.34,1.46E+08,,
265.38,6.86E+07,,
265.43,2.51E+07,,
265.47,1.07E+07,,
265.51,4.32E+06,,
265.55,1.68E+06,,
265.6,4.81E+05,,
265.64,1.68E+05,,
265.68,5.62E+04,,
265.72,1.79E+04,,
265.77,4.04E+03,,
265.81,1.16E+03,,
265.85,3.20E+02,,
265.89,8.42E+01,,
265.94,1.49E+01,,
265.98,3.53E+00,,
266.02,7.99E-01,,
266.06,1.73E-01,,
266.11,2.40E-02,,
266.15,4.68E-03,,
266.19,8.74E-04,,
266.23,1.56E-04,,
266.28,1.69E-05,,
315.42,5.35E-08,,
315.47,3.48E-07,,
315.51,1.50E-06,,
315.55,6.27E-06,,
315.59,2.54E-05,,
315.64,1.39E-04,,
315.68,5.25E-04,,
315.72,1.92E-03,,
315.76,6.78E-03,,
315.81,3.15E-02,,
315.85,1.04E-01,,
315.89,3.31E-01,,
315.93,1.02E+00,,
315.98,4.00E+00,,
316.02,1.15E+01,,
316.06,3.21E+01,,
316.1,8.66E+01,,
316.15,2.86E+02,,
316.19,7.20E+02,,
316.23,1.75E+03,,
316.27,4.13E+03,,
316.32,1.16E+04,,
316.36,2.54E+04,,
316.4,5.40E+04,,
316.44,1.11E+05,,
316.49,2.63E+05,,
316.53,5.04E+05,,
316.57,9.36E+05,,
316.62,1.94E+06,,
316.66,3.36E+06,,
316.7,5.63E+06,,
316.74,9.14E+06,,
316.79,1.60E+07,,
316.83,2.42E+07,,
316.87,3.55E+07,,
316.91,5.03E+07,,
316.96,7.44E+07,,
317,9.83E+07,,
317.04,1.26E+08,,
317.08,1.56E+08,,
317.13,1.95E+08,,
317.17,2.25E+08,,
317.21,2.51E+08,,
317.25,2.72E+08,,
317.3,2.87E+08,,
317.34,2.90E+08,,
317.38,2.83E+08,,
317.42,2.68E+08,,
317.47,2.40E+08,,
317.51,2.12E+08,,
317.55,1.83E+08,,
317.59,1.54E+08,,
317.64,1.23E+08,,
317.68,1.04E+08,,
317.72,9.15E+07,,
317.76,8.78E+07,,
317.81,9.62E+07,,
317.85,1.14E+08,,
317.89,1.42E+08,,
317.93,1.79E+08,,
317.98,2.37E+08,,
318.02,2.91E+08,,
318.06,3.47E+08,,
318.1,4.03E+08,,
318.15,4.66E+08,,
318.19,5.05E+08,,
318.23,5.32E+08,,
318.27,5.42E+08,,
318.32,5.33E+08,,
318.36,5.07E+08,,
318.4,4.68E+08,,
318.44,4.19E+08,,
318.49,3.50E+08,,
318.53,2.92E+08,,
318.57,2.37E+08,,
318.61,1.87E+08,,
318.66,1.35E+08,,
318.7,1.03E+08,,
318.74,8.19E+07,,
318.78,7.16E+07,,
318.83,7.77E+07,,
318.87,1.02E+08,,
318.91,1.48E+08,,
318.95,2.24E+08,,
319,3.74E+08,,
319.04,5.51E+08,,
319.08,7.88E+08,,
319.12,1.09E+09,,
319.17,1.58E+09,,
319.21,2.05E+09,,
319.25,2.57E+09,,
319.29,3.12E+09,,
319.34,3.82E+09,,
319.38,4.33E+09,,
319.42,4.75E+09,,
319.46,5.06E+09,,
319.51,5.24E+09,,
319.55,5.20E+09,,
319.59,5.00E+09,,
319.63,4.66E+09,,
319.68,4.08E+09,,
319.72,3.54E+09,,
319.76,2.98E+09,,
319.8,2.43E+09,,
319.85,1.80E+09,,
319.89,1.37E+09,,
319.93,1.01E+09,,
319.97,7.21E+08,,
320.02,4.53E+08,,
320.06,3.01E+08,,
320.1,1.94E+08,,
320.14,1.22E+08,,
320.19,6.50E+07,,
320.23,3.85E+07,,
320.27,2.31E+07,,
320.31,1.55E+07,,
320.36,1.42E+07,,
320.4,1.96E+07,,
320.44,3.24E+07,,
320.48,5.57E+07,,
320.53,1.08E+08,,
320.57,1.79E+08,,
320.61,2.87E+08,,
320.65,4.47E+08,,
320.7,7.43E+08,,
320.74,1.08E+09,,
320.78,1.52E+09,,
320.82,2.07E+09,,
320.87,2.92E+09,,
320.91,3.71E+09,,
320.95,4.57E+09,,
320.99,5.47E+09,,
321.04,6.54E+09,,
321.08,7.29E+09,,
321.12,7.88E+09,,
321.16,8.25E+09,,
321.21,8.37E+09,,
321.25,8.18E+09,,
321.29,7.75E+09,,
321.33,7.12E+09,,
321.38,6.12E+09,,
321.42,5.24E+09,,
321.46,4.35E+09,,
321.5,3.50E+09,,
321.55,2.56E+09,,
321.59,1.92E+09,,
321.63,1.40E+09,,
321.67,9.85E+08,,
321.72,6.10E+08,,
321.76,4.01E+08,,
321.8,2.56E+08,,
321.84,1.58E+08,,
321.89,8.30E+07,,
321.93,4.79E+07,,
321.97,2.68E+07,,
322.01,1.45E+07,,
322.06,6.46E+06,,
322.1,3.26E+06,,
322.14,1.60E+06,,
322.18,7.59E+05,,
322.23,2.87E+05,,
322.27,1.27E+05,,
322.31,5.47E+04,,
322.35,2.30E+04,,
322.4,8.45E+03,,
322.44,5.95E+03,,
322.48,9.13E+03,,
322.52,2.06E+04,,
322.57,6.08E+04,,
322.61,1.42E+05,,
322.65,3.21E+05,,
322.69,7.04E+05,,
322.74,1.80E+06,,
322.78,3.69E+06,,
322.82,7.34E+06,,
322.86,1.42E+07,,
322.91,3.08E+07,,
322.95,5.55E+07,,
322.99,9.69E+07,,
323.03,1.64E+08,,
323.08,3.04E+08,,
323.12,4.80E+08,,
323.16,7.36E+08,,
323.2,1.10E+09,,
323.25,1.72E+09,,
323.29,2.39E+09,,
323.33,3.22E+09,,
323.38,4.48E+09,,
323.42,5.63E+09,,
323.46,6.87E+09,,
323.5,8.13E+09,,
323.55,9.60E+09,,
323.59,1.06E+10,,
323.63,1.14E+10,,
323.67,1.18E+10,,
323.72,1.19E+10,,
323.76,1.15E+10,,
323.8,1.08E+10,,
323.84,9.87E+09,,
323.89,8.43E+09,,
323.93,7.18E+09,,
323.97,5.94E+09,,
324.01,4.76E+09,,
324.06,3.46E+09,,
324.1,2.59E+09,,
324.14,1.88E+09,,
324.18,1.32E+09,,
324.23,8.15E+08,,
324.27,5.36E+08,,
324.31,3.42E+08,,
324.35,2.11E+08,,
324.4,1.11E+08,,
324.44,6.40E+07,,
324.48,3.58E+07,,
324.52,1.94E+07,,
324.57,8.68E+06,,
324.61,4.40E+06,,
324.65,2.16E+06,,
324.69,1.03E+06,,
324.74,3.92E+05,,
324.78,1.74E+05,,
324.82,7.53E+04,,
324.86,3.15E+04,,
324.91,1.02E+04,,
324.95,3.98E+03,,
324.99,1.51E+03,,
325.03,5.55E+02,,
325.08,1.52E+02,,
325.12,5.23E+01,,
325.16,1.74E+01,,
325.2,5.62E+00,,
325.25,1.31E+00,,
325.29,3.96E-01,,
325.33,1.16E-01,,
325.37,3.28E-02,,
325.42,6.52E-03,,
325.46,1.73E-03,,
325.5,4.43E-04,,
325.54,1.11E-04,,
325.59,1.86E-05,,
325.63,4.34E-06,,
344.55,1.60E-07,,
344.59,6.32E-07,,
344.63,2.43E-06,,
344.68,1.26E-05,,
344.72,4.54E-05,,
344.76,1.60E-04,,
344.8,5.48E-04,,
344.85,2.46E-03,,
344.89,7.94E-03,,
344.93,2.50E-02,,
344.97,7.64E-02,,
345.02,2.98E-01,,
345.06,8.58E-01,,
345.1,2.41E+00,,
345.14,6.59E+00,,
345.19,2.23E+01,,
345.23,5.74E+01,,
345.27,1.44E+02,,
345.31,3.51E+02,,
345.36,1.03E+03,,
345.4,2.37E+03,,
345.44,5.31E+03,,
345.48,1.16E+04,,
345.53,2.95E+04,,
345.57,6.05E+04,,
345.61,1.21E+05,,
345.65,2.35E+05,,
345.7,5.21E+05,,
345.74,9.55E+05,,
345.78,1.71E+06,,
345.82,2.96E+06,,
345.87,5.70E+06,,
345.91,9.32E+06,,
345.95,1.49E+07,,
345.99,2.31E+07,,
346.04,3.85E+07,,
346.08,5.62E+07,,
346.12,8.00E+07,,
346.16,1.11E+08,,
346.21,1.61E+08,,
346.25,2.10E+08,,
346.29,2.66E+08,,
346.33,3.30E+08,,
346.38,4.14E+08,,
346.42,4.83E+08,,
346.46,5.48E+08,,
346.5,6.06E+08,,
346.55,6.61E+08,,
346.59,6.88E+08,,
346.63,6.97E+08,,
346.67,6.88E+08,,
346.72,6.52E+08,,
346.76,6.06E+08,,
346.8,5.48E+08,,
346.84,4.83E+08,,
346.89,3.97E+08,,
346.93,3.30E+08,,
346.97,2.66E+08,,
347.01,2.10E+08,,
347.06,1.50E+08,,
347.1,1.11E+08,,
347.14,8.00E+07,,
347.18,5.62E+07,,
347.23,3.48E+07,,
347.27,2.31E+07,,
347.31,1.49E+07,,
347.35,9.32E+06,,
347.4,5.01E+06,,
347.44,2.96E+06,,
347.48,1.71E+06,,
347.52,9.55E+05,,
347.57,4.46E+05,,
347.61,2.35E+05,,
347.65,1.21E+05,,
347.69,6.05E+04,,
347.74,2.45E+04,,
347.78,1.16E+04,,
347.82,5.31E+03,,
347.86,2.37E+03,,
347.91,8.34E+02,,
347.95,3.51E+02,,
347.99,1.44E+02,,
348.03,5.74E+01,,
348.08,1.75E+01,,
348.12,6.59E+00,,
348.16,2.41E+00,,
348.2,8.58E-01,,
348.25,2.28E-01,,
348.29,7.64E-02,,
348.33,2.50E-02,,
348.37,7.94E-03,,
348.42,1.83E-03,,
348.46,5.48E-04,,
348.5,1.60E-04,,
348.54,4.54E-05,,
348.59,9.07E-06,,
348.63,2.43E-06,,
348.67,6.32E-07,,
348.71,1.60E-07,,
361.43,3.54E-07,,
361.47,1.31E-06,,
361.51,4.72E-06,,
361.55,1.66E-05,,
361.6,7.74E-05,,
361.64,2.58E-04,,
361.68,8.40E-04,,
361.72,2.67E-03,,
361.77,1.09E-02,,
361.81,3.29E-02,,
361.85,9.65E-02,,
361.89,2.77E-01,,
361.94,9.97E-01,,
361.98,2.71E+00,,
362.02,7.17E+00,,
362.06,1.85E+01,,
362.11,5.87E+01,,
362.15,1.44E+02,,
362.19,3.44E+02,,
362.23,8.02E+02,,
362.28,2.24E+03,,
362.32,4.94E+03,,
362.36,1.07E+04,,
362.4,2.24E+04,,
362.45,5.49E+04,,
362.49,1.10E+05,,
362.53,2.13E+05,,
362.57,4.05E+05,,
362.62,8.72E+05,,
362.66,1.57E+06,,
362.7,2.75E+06,,
362.74,4.72E+06,,
362.79,8.94E+06,,
362.83,1.45E+07,,
362.87,2.30E+07,,
362.91,3.55E+07,,
362.96,5.92E+07,,
363,8.66E+07,,
363.04,1.24E+08,,
363.08,1.73E+08,,
363.13,2.53E+08,,
363.17,3.34E+08,,
363.21,4.31E+08,,
363.25,5.42E+08,,
363.3,6.99E+08,,
363.34,8.33E+08,,
363.38,9.69E+08,,
363.42,1.10E+09,,
363.47,1.25E+09,,
363.51,1.34E+09,,
363.55,1.41E+09,,
363.59,1.44E+09,,
363.64,1.44E+09,,
363.68,1.39E+09,,
363.72,1.32E+09,,
363.77,1.19E+09,,
363.81,1.07E+09,,
363.85,9.35E+08,,
363.89,7.99E+08,,
363.94,6.34E+08,,
363.98,5.13E+08,,
364.02,4.05E+08,,
364.06,3.12E+08,,
364.11,2.18E+08,,
364.15,1.59E+08,,
364.19,1.14E+08,,
364.23,7.89E+07,,
364.28,4.85E+07,,
364.32,3.19E+07,,
364.36,2.05E+07,,
364.4,1.29E+07,,
364.45,6.95E+06,,
364.49,4.13E+06,,
364.53,2.40E+06,,
364.57,1.36E+06,,
364.62,6.44E+05,,
364.66,3.45E+05,,
364.7,1.81E+05,,
364.74,9.24E+04,,
364.79,3.86E+04,,
364.83,1.87E+04,,
364.87,8.81E+03,,
364.91,4.06E+03,,
364.96,1.49E+03,,
365,6.50E+02,,
365.04,2.77E+02,,
365.08,1.15E+02,,
365.13,3.72E+01,,
365.17,1.47E+01,,
365.21,5.63E+00,,
365.25,2.11E+00,,
365.3,6.00E-01,,
365.34,2.13E-01,,
365.38,7.39E-02,,
365.42,2.50E-02,,
365.47,6.24E-03,,
365.51,2.00E-03,,
365.55,6.27E-04,,
365.59,1.91E-04,,
365.64,4.20E-05,,
365.68,1.22E-05,,
365.72,3.43E-06,,
365.76,9.45E-07,,
365.81,1.82E-07,,
369.63,6.98E-08,,
369.67,2.55E-07,,
369.72,1.25E-06,,
369.76,4.32E-06,,
369.8,1.47E-05,,
369.84,4.85E-05,,
369.89,2.10E-04,,
369.93,6.60E-04,,
369.97,2.03E-03,,
370.01,6.08E-03,,
370.06,2.33E-02,,
370.1,6.63E-02,,
370.14,1.84E-01,,
370.18,5.02E-01,,
370.23,1.70E+00,,
370.27,4.38E+00,,
370.31,1.11E+01,,
370.35,2.73E+01,,
370.4,8.15E+01,,
370.44,1.91E+02,,
370.48,4.36E+02,,
370.53,1.19E+03,,
370.57,2.58E+03,,
370.61,5.47E+03,,
370.65,1.13E+04,,
370.7,2.73E+04,,
370.74,5.37E+04,,
370.78,1.03E+05,,
370.82,1.94E+05,,
370.87,4.13E+05,,
370.91,7.36E+05,,
370.95,1.28E+06,,
370.99,2.18E+06,,
371.04,4.11E+06,,
371.08,6.65E+06,,
371.12,1.05E+07,,
371.16,1.62E+07,,
371.21,2.70E+07,,
371.25,3.95E+07,,
371.29,5.65E+07,,
371.33,7.91E+07,,
371.38,1.16E+08,,
371.42,1.55E+08,,
371.46,2.01E+08,,
371.5,2.54E+08,,
371.55,3.31E+08,,
371.59,3.98E+08,,
371.63,4.68E+08,,
371.67,5.38E+08,,
371.72,6.20E+08,,
371.76,6.76E+08,,
371.8,7.20E+08,,
371.84,7.50E+08,,
371.89,7.64E+08,,
371.93,7.55E+08,,
371.97,7.29E+08,,
372.01,6.88E+08,,
372.06,6.20E+08,,
372.1,5.55E+08,,
372.14,4.86E+08,,
372.18,4.16E+08,,
372.23,3.31E+08,,
372.27,2.69E+08,,
372.31,2.13E+08,,
372.35,1.65E+08,,
372.4,1.16E+08,,
372.44,8.57E+07,,
372.48,6.16E+07,,
372.52,4.33E+07,,
372.57,2.70E+07,,
372.61,1.80E+07,,
372.65,1.17E+07,,
372.69,7.47E+06,,
372.74,4.11E+06,,
372.78,2.49E+06,,
372.82,1.47E+06,,
372.86,8.48E+05,,
372.91,4.13E+05,,
372.95,2.26E+05,,
372.99,1.21E+05,,
373.03,6.34E+04,,
373.08,2.73E+04,,
373.12,1.36E+04,,
373.16,6.58E+03,,
373.2,3.12E+03,,
373.25,1.19E+03,,
373.29,5.35E+02,,
373.33,2.35E+02,,
373.37,1.01E+02,,
373.42,3.40E+01,,
373.46,1.39E+01,,
373.5,5.53E+00,,
373.54,2.16E+00,,
373.59,6.42E-01,,
373.63,2.37E-01,,
373.67,8.58E-02,,
373.71,3.03E-02,,
373.76,7.98E-03,,
373.8,2.67E-03,,
373.84,8.75E-04,,
373.88,2.80E-04,,
373.93,6.52E-05,,
373.97,1.98E-05,,
374.01,5.88E-06,,
374.05,1.71E-06,,
374.1,3.51E-07,,
374.14,9.67E-08,,
396.08,2.79E-08,,
396.12,9.33E-08,,
396.16,3.06E-07,,
396.2,9.86E-07,,
396.25,4.13E-06,,
396.29,1.27E-05,,
396.33,3.83E-05,,
396.37,1.13E-04,,
396.42,4.26E-04,,
396.46,1.20E-03,,
396.5,3.33E-03,,
396.54,9.02E-03,,
396.59,3.05E-02,,
396.63,7.90E-02,,
396.67,2.01E-01,,
396.71,4.99E-01,,
396.76,1.52E+00,,
396.8,3.61E+00,,
396.84,8.41E+00,,
396.88,1.92E+01,,
396.93,5.25E+01,,
396.97,1.15E+02,,
397.01,2.45E+02,,
397.05,5.14E+02,,
397.1,1.26E+03,,
397.14,2.53E+03,,
397.18,4.97E+03,,
397.22,9.56E+03,,
397.27,2.11E+04,,
397.31,3.88E+04,,
397.35,6.99E+04,,
397.4,1.42E+05,,
397.44,2.45E+05,,
397.48,4.13E+05,,
397.52,6.83E+05,,
397.57,1.25E+06,,
397.61,1.97E+06,,
397.65,3.06E+06,,
397.69,4.64E+06,,
397.74,7.61E+06,,
397.78,1.11E+07,,
397.82,1.57E+07,,
397.86,2.19E+07,,
397.91,3.23E+07,,
397.95,4.30E+07,,
397.99,5.62E+07,,
398.03,7.20E+07,,
398.08,9.52E+07,,
398.12,1.17E+08,,
398.16,1.40E+08,,
398.2,1.64E+08,,
398.25,1.95E+08,,
398.29,2.19E+08,,
398.33,2.41E+08,,
398.37,2.60E+08,,
398.42,2.78E+08,,
398.46,2.86E+08,,
398.5,2.89E+08,,
398.54,2.86E+08,,
398.59,2.75E+08,,
398.63,2.60E+08,,
398.67,2.41E+08,,
398.71,2.19E+08,,
398.76,1.89E+08,,
398.8,1.64E+08,,
398.84,1.40E+08,,
398.88,1.17E+08,,
398.93,9.03E+07,,
398.97,7.20E+07,,
399.01,5.62E+07,,
399.05,4.30E+07,,
399.1,3.00E+07,,
399.14,2.19E+07,,
399.18,1.57E+07,,
399.22,1.11E+07,,
399.27,6.91E+06,,
399.31,4.64E+06,,
399.35,3.06E+06,,
399.39,1.97E+06,,
399.44,1.11E+06,,
399.48,6.83E+05,,
399.52,4.13E+05,,
399.56,2.45E+05,,
399.61,1.24E+05,,
399.65,6.99E+04,,
399.69,3.88E+04,,
399.73,2.11E+04,,
399.78,9.56E+03,,
399.82,4.97E+03,,
399.86,2.53E+03,,
399.9,1.26E+03,,
399.95,5.14E+02,,
399.99,2.45E+02,,
400.03,1.15E+02,,
400.07,5.25E+01,,
400.12,1.92E+01,,
400.16,8.41E+00,,
400.2,3.61E+00,,
400.24,1.52E+00,,
400.29,4.99E-01,,
400.33,2.01E-01,,
400.37,7.90E-02,,
400.41,3.05E-02,,
400.46,9.02E-03,,
400.5,3.33E-03,,
400.54,1.20E-03,,
400.58,4.26E-04,,
400.63,1.13E-04,,
400.67,3.83E-05,,
400.71,1.27E-05,,
400.75,4.40E-06,,
400.8,2.14E-06,,
400.84,3.97E-06,,
400.88,1.14E-05,,
400.92,3.45E-05,,
400.97,1.35E-04,,
401.01,3.92E-04,,
401.05,1.12E-03,,
401.09,3.13E-03,,
401.14,1.10E-02,,
401.18,2.95E-02,,
401.22,7.74E-02,,
401.26,1.99E-01,,
401.31,6.31E-01,,
401.35,1.55E+00,,
401.39,3.75E+00,,
401.43,8.87E+00,,
401.48,2.53E+01,,
401.52,5.73E+01,,
401.56,1.27E+02,,
401.6,2.77E+02,,
401.65,7.12E+02,,
401.69,1.48E+03,,
401.73,3.03E+03,,
401.77,6.06E+03,,
401.82,1.40E+04,,
401.86,2.69E+04,,
401.9,5.04E+04,,
401.94,9.29E+04,,
401.99,1.94E+05,,
402.03,3.41E+05,,
402.07,5.89E+05,,
402.11,9.97E+05,,
402.16,1.87E+06,,
402.2,3.04E+06,,
402.24,4.82E+06,,
402.28,7.51E+06,,
402.33,1.27E+07,,
402.37,1.89E+07,,
402.41,2.77E+07,,
402.45,3.96E+07,,
402.5,6.04E+07,,
402.54,8.27E+07,,
402.58,1.11E+08,,
402.62,1.46E+08,,
402.67,2.01E+08,,
402.71,2.53E+08,,
402.75,3.13E+08,,
402.79,3.79E+08,,
402.84,4.69E+08,,
402.88,5.44E+08,,
402.92,6.18E+08,,
402.96,6.88E+08,,
403.01,7.67E+08,,
403.05,8.17E+08,,
403.09,8.54E+08,,
403.13,8.76E+08,,
403.18,8.78E+08,,
403.22,8.61E+08,,
403.26,8.28E+08,,
403.3,7.80E+08,,
403.35,7.05E+08,,
403.39,6.36E+08,,
403.43,5.62E+08,,
403.47,4.87E+08,,
403.52,3.97E+08,,
403.56,3.29E+08,,
403.6,2.68E+08,,
403.64,2.13E+08,,
403.69,1.56E+08,,
403.73,1.19E+08,,
403.77,8.92E+07,,
403.81,6.54E+07,,
403.86,4.32E+07,,
403.9,3.03E+07,,
403.94,2.09E+07,,
403.98,1.41E+07,,
404.03,8.36E+06,,
404.07,5.40E+06,,
404.11,3.41E+06,,
404.16,1.87E+06,,
404.2,1.13E+06,,
404.24,6.73E+05,,
404.28,3.92E+05,,
404.33,1.94E+05,,
404.37,1.08E+05,,
404.41,5.89E+04,,
404.45,3.15E+04,,
404.5,1.40E+04,,
404.54,7.18E+03,,
404.58,3.61E+03,,
404.62,1.78E+03,,
404.67,7.12E+02,,
404.71,3.35E+02,,
404.75,1.55E+02,,
404.79,7.01E+01,,
404.84,2.53E+01,,
404.88,1.10E+01,,
404.92,4.66E+00,,
404.96,1.94E+00,,
405.01,6.31E-01,,
405.05,2.51E-01,,
405.09,9.82E-02,,
405.13,3.76E-02,,
405.18,1.10E-02,,
405.22,4.04E-03,,
405.26,1.45E-03,,
405.3,5.11E-04,,
405.35,1.35E-04,,
405.39,4.54E-05,,
405.43,1.50E-05,,
405.47,4.86E-06,,
405.52,1.16E-06,,
405.56,3.58E-07,,
405.6,1.09E-07,,
407.09,3.81E-08,,
407.13,1.23E-07,,
407.17,3.90E-07,,
407.22,1.61E-06,,
407.26,4.89E-06,,
407.3,1.46E-05,,
407.34,4.26E-05,,
407.39,1.59E-04,,
407.43,4.44E-04,,
407.47,1.22E-03,,
407.51,3.29E-03,,
407.56,1.11E-02,,
407.6,2.86E-02,,
407.64,7.25E-02,,
407.68,1.80E-01,,
407.73,5.48E-01,,
407.77,1.31E+00,,
407.81,3.05E+00,,
407.85,7.00E+00,,
407.9,1.92E+01,,
407.94,4.22E+01,,
407.98,9.10E+01,,
408.02,1.92E+02,,
408.07,4.78E+02,,
408.11,9.67E+02,,
408.15,1.92E+03,,
408.19,3.75E+03,,
408.24,8.41E+03,,
408.28,1.57E+04,,
408.32,2.88E+04,,
408.36,5.17E+04,,
408.41,1.05E+05,,
408.45,1.81E+05,,
408.49,3.05E+05,,
408.53,5.06E+05,,
408.58,9.27E+05,,
408.62,1.47E+06,,
408.66,2.29E+06,,
408.7,3.51E+06,,
408.75,5.80E+06,,
408.79,8.50E+06,,
408.83,1.22E+07,,
408.87,1.72E+07,,
408.92,2.57E+07,,
408.96,3.48E+07,,
409,4.60E+07,,
409.04,5.99E+07,,
409.09,8.09E+07,,
409.13,1.01E+08,,
409.17,1.23E+08,,
409.21,1.48E+08,,
409.26,1.80E+08,,
409.3,2.07E+08,,
409.34,2.33E+08,,
409.38,2.58E+08,,
409.43,2.84E+08,,
409.47,3.01E+08,,
