Wavelength,Spectra,,
189.71,2.99E-06,,
189.75,3.57E-05,,
189.79,3.91E-04,,
189.83,3.93E-03,,
189.88,6.19E-02,,
189.92,5.10E-01,,
189.96,3.85E+00,,
190,2.66E+01,,
190.05,2.63E+02,,
190.09,1.49E+03,,
190.13,7.74E+03,,
190.17,3.68E+04,,
190.22,2.28E+05,,
190.26,8.91E+05,,
190.3,3.19E+06,,
190.34,1.04E+07,,
190.39,4.06E+07,,
190.43,1.09E+08,,
190.47,2.68E+08,,
190.51,6.04E+08,,
190.56,1.48E+09,,
190.6,2.73E+09,,
190.64,4.62E+09,,
190.68,7.17E+09,,
190.73,1.10E+10,,
190.77,1.40E+10,,
190.81,1.63E+10,,
190.85,1.74E+10,,
190.9,1.67E+10,,
190.94,1.46E+10,,
190.98,1.18E+10,,
191.02,8.64E+09,,
191.07,5.20E+09,,
191.11,3.14E+09,,
191.15,1.73E+09,,
191.19,8.78E+08,,
191.24,3.31E+08,,
191.28,1.38E+08,,
191.32,5.24E+07,,
191.36,1.83E+07,,
191.41,4.32E+06,,
191.45,1.24E+06,,
191.49,3.24E+05,,
191.53,7.76E+04,,
191.58,1.15E+04,,
191.62,2.27E+03,,
191.66,4.09E+02,,
191.7,6.76E+01,,
191.75,6.29E+00,,
191.79,8.52E-01,,
191.83,1.06E-01,,
191.87,1.20E-02,,
191.92,7.02E-04,,
191.96,6.55E-05,,
192,5.60E-06,,
236.52,8.51E-08,,
236.56,6.33E-07,,
236.6,4.45E-06,,
236.64,2.95E-05,,
236.69,2.91E-04,,
236.73,1.70E-03,,
236.77,9.40E-03,,
236.81,4.91E-02,,
236.86,3.58E-01,,
236.9,1.65E+00,,
236.94,7.15E+00,,
236.98,2.94E+01,,
237.03,1.59E+02,,
237.07,5.74E+02,,
237.11,1.96E+03,,
237.15,6.34E+03,,
237.2,2.54E+04,,
237.24,7.21E+04,,
237.28,1.94E+05,,
237.32,4.93E+05,,
237.37,1.46E+06,,
237.41,3.27E+06,,
237.45,6.91E+06,,
237.49,1.38E+07,,
237.54,3.03E+07,,
237.58,5.33E+07,,
237.62,8.86E+07,,
237.66,1.39E+08,,
237.71,2.26E+08,,
237.75,3.13E+08,,
237.79,4.10E+08,,
237.83,5.06E+08,,
237.88,6.10E+08,,
237.92,6.64E+08,,
237.96,6.83E+08,,
238,6.64E+08,,
238.05,5.92E+08,,
238.09,5.06E+08,,
238.13,4.10E+08,,
238.17,3.13E+08,,
238.22,2.07E+08,,
238.26,1.39E+08,,
238.3,8.86E+07,,
238.34,5.33E+07,,
238.39,2.61E+07,,
238.43,1.38E+07,,
238.47,6.91E+06,,
238.51,3.27E+06,,
238.56,1.18E+06,,
238.6,4.93E+05,,
238.64,1.94E+05,,
238.68,7.21E+04,,
238.73,1.94E+04,,
238.77,6.34E+03,,
238.81,1.96E+03,,
238.85,5.74E+02,,
238.9,1.14E+02,,
238.94,2.94E+01,,
238.98,7.15E+00,,
239.02,1.65E+00,,
239.07,2.42E-01,,
239.11,4.91E-02,,
239.15,9.40E-03,,
239.19,1.70E-03,,
239.24,1.85E-04,,
239.28,2.95E-05,,
239.32,4.45E-06,,
239.36,6.33E-07,,
239.41,5.11E-08,,
251.57,1.73E-08,,
251.61,1.10E-07,,
251.65,6.64E-07,,
251.69,3.82E-06,,
251.74,3.17E-05,,
251.78,1.63E-04,,
251.82,7.95E-04,,
251.86,3.69E-03,,
251.91,2.35E-02,,
251.95,9.76E-02,,
251.99,3.86E-01,,
252.03,1.45E+00,,
252.08,7.07E+00,,
252.12,2.38E+01,,
252.16,7.59E+01,,
252.2,2.31E+02,,
252.25,8.63E+02,,
252.29,2.34E+03,,
252.33,6.06E+03,,
252.37,1.49E+04,,
252.42,4.27E+04,,
252.46,9.38E+04,,
252.5,1.96E+05,,
252.54,3.90E+05,,
252.59,8.57E+05,,
252.63,1.52E+06,,
252.67,2.57E+06,,
252.71,4.14E+06,,
252.76,6.98E+06,,
252.8,1.00E+07,,
252.84,1.37E+07,,
252.88,1.78E+07,,
252.93,2.30E+07,,
252.97,2.68E+07,,
253.01,2.96E+07,,
253.05,3.11E+07,,
253.1,3.09E+07,,
253.14,2.90E+07,,
253.18,2.59E+07,,
253.22,2.20E+07,,
253.27,1.68E+07,,
253.31,1.27E+07,,
253.35,9.20E+06,,
253.39,6.32E+06,,
253.44,3.69E+06,,
253.48,2.27E+06,,
253.52,1.33E+06,,
253.56,7.37E+05,,
253.61,3.30E+05,,
253.65,1.64E+05,,
253.69,7.74E+04,,
253.73,3.48E+04,,
253.78,1.19E+04,,
253.82,4.80E+03,,
253.86,1.83E+03,,
253.9,6.67E+02,,
253.95,1.76E+02,,
253.99,5.70E+01,,
254.03,1.76E+01,,
254.07,5.18E+00,,
254.12,1.05E+00,,
254.16,2.75E-01,,
254.2,6.87E-02,,
254.24,1.63E-02,,
254.29,2.53E-03,,
254.33,5.37E-04,,
254.37,1.09E-04,,
254.41,2.09E-05,,
254.46,2.48E-06,,
254.5,4.26E-07,,
254.54,6.96E-08,,
254.58,1.08E-08,,
256.46,3.78E-08,,
256.5,2.38E-07,,
256.54,1.42E-06,,
256.58,8.13E-06,,
256.63,6.71E-05,,
256.67,3.44E-04,,
256.71,1.68E-03,,
256.75,7.82E-03,,
256.8,5.00E-02,,
256.84,2.09E-01,,
256.88,8.32E-01,,
256.92,3.16E+00,,
256.97,1.57E+01,,
257.01,5.33E+01,,
257.05,1.73E+02,,
257.09,5.36E+02,,
257.14,2.05E+03,,
257.18,5.71E+03,,
257.22,1.51E+04,,
257.26,3.81E+04,,
257.31,1.13E+05,,
257.35,2.56E+05,,
257.39,5.53E+05,,
257.43,1.14E+06,,
257.48,2.62E+06,,
257.52,4.83E+06,,
257.56,8.50E+06,,
257.6,1.43E+07,,
257.65,2.54E+07,,
257.69,3.82E+07,,
257.73,5.48E+07,,
257.77,7.49E+07,,
257.82,1.04E+08,,
257.86,1.27E+08,,
257.9,1.48E+08,,
257.94,1.65E+08,,
257.99,1.77E+08,,
258.03,1.77E+08,,
258.07,1.69E+08,,
258.11,1.53E+08,,
258.16,1.27E+08,,
258.2,1.04E+08,,
258.24,8.04E+07,,
258.28,5.96E+07,,
258.33,3.82E+07,,
258.37,2.54E+07,,
258.41,1.61E+07,,
258.45,9.72E+06,,
258.5,4.83E+06,,
258.54,2.62E+06,,
258.58,1.35E+06,,
258.62,6.65E+05,,
258.67,2.56E+05,,
258.71,1.13E+05,,
258.75,4.77E+04,,
258.79,1.91E+04,,
258.84,5.71E+03,,
258.88,2.05E+03,,
258.92,7.05E+02,,
258.96,2.31E+02,,
259.01,5.33E+01,,
259.05,1.57E+01,,
259.09,4.38E+00,,
259.13,1.17E+00,,
259.18,2.09E-01,,
259.22,5.00E-02,,
259.26,1.14E-02,,
259.3,2.48E-03,,
259.35,3.44E-04,,
259.39,6.71E-05,,
259.43,1.25E-05,,
259.47,2.21E-06,,
259.52,2.38E-07,,
259.56,3.78E-08,,
275.12,4.65E-07,,
275.16,2.61E-06,,
275.2,1.40E-05,,
275.25,1.08E-04,,
275.29,5.28E-04,,
275.33,2.48E-03,,
275.37,1.11E-02,,
275.42,6.88E-02,,
275.46,2.82E-01,,
275.5,1.11E+00,,
275.54,4.17E+00,,
275.59,2.06E+01,,
275.63,7.07E+01,,
275.67,2.32E+02,,
275.71,7.33E+02,,
275.76,2.91E+03,,
275.8,8.34E+03,,
275.84,2.30E+04,,
275.88,6.06E+04,,
275.93,1.93E+05,,
275.97,4.63E+05,,
276.01,1.07E+06,,
276.05,2.36E+06,,
276.1,6.00E+06,,
276.14,1.21E+07,,
276.18,2.33E+07,,
276.23,5.00E+07,,
276.27,8.80E+07,,
276.31,1.48E+08,,
276.35,2.40E+08,,
276.4,4.12E+08,,
276.44,6.06E+08,,
276.48,8.56E+08,,
276.52,1.16E+09,,
276.57,1.60E+09,,
276.61,1.97E+09,,
276.65,2.32E+09,,
276.69,2.63E+09,,
276.74,2.90E+09,,
276.78,3.00E+09,,
276.82,2.97E+09,,
276.86,2.81E+09,,
276.91,2.49E+09,,
276.95,2.15E+09,,
276.99,1.78E+09,,
277.03,1.41E+09,,
277.08,1.00E+09,,
277.12,7.24E+08,,
277.16,5.02E+08,,
277.2,3.34E+08,,
277.25,1.90E+08,,
277.29,1.15E+08,,
277.33,6.67E+07,,
277.37,3.72E+07,,
277.42,1.69E+07,,
277.46,8.56E+06,,
277.5,4.16E+06,,
277.54,1.94E+06,,
277.59,7.07E+05,,
277.63,3.00E+05,,
277.67,1.22E+05,,
277.71,4.78E+04,,
277.76,1.39E+04,,
277.8,4.95E+03,,
277.84,1.69E+03,,
277.88,5.52E+02,,
277.93,1.29E+02,,
277.97,3.84E+01,,
278.01,1.10E+01,,
278.05,3.00E+00,,
278.1,5.61E-01,,
278.14,1.40E-01,,
278.18,3.35E-02,,
278.22,7.68E-03,,
278.27,1.15E-03,,
278.31,2.40E-04,,
278.35,4.80E-05,,
278.39,9.23E-06,,
278.44,1.11E-06,,
290.09,2.35E-07,,
290.13,1.18E-06,,
290.17,5.74E-06,,
290.21,2.68E-05,,
290.26,1.74E-04,,
290.3,7.47E-04,,
290.34,3.09E-03,,
290.38,1.23E-02,,
290.43,6.55E-02,,
290.47,2.39E-01,,
290.51,8.42E-01,,
290.55,2.86E+00,,
290.6,1.25E+01,,
290.64,3.89E+01,,
290.68,1.17E+02,,
290.72,3.37E+02,,
290.77,1.21E+03,,
290.81,3.20E+03,,
290.85,8.19E+03,,
290.89,2.02E+04,,
290.94,5.91E+04,,
290.98,1.34E+05,,
291.02,2.92E+05,,
291.06,6.13E+05,,
291.11,1.47E+06,,
291.15,2.84E+06,,
291.19,5.27E+06,,
291.23,9.44E+06,,
291.28,1.85E+07,,
291.32,3.05E+07,,
291.36,4.83E+07,,
291.4,7.38E+07,,
291.45,1.19E+08,,
291.49,1.66E+08,,
291.53,2.25E+08,,
291.57,2.92E+08,,
291.62,3.85E+08,,
291.66,4.61E+08,,
291.7,5.30E+08,,
291.74,5.88E+08,,
291.79,6.35E+08,,
291.83,6.47E+08,,
291.87,6.35E+08,,
291.91,6.00E+08,,
291.96,5.30E+08,,
292,4.61E+08,,
292.04,3.85E+08,,
292.08,3.11E+08,,
292.13,2.25E+08,,
292.17,1.66E+08,,
292.21,1.19E+08,,
292.25,8.15E+07,,
292.3,4.83E+07,,
292.34,3.05E+07,,
292.38,1.85E+07,,
292.42,1.09E+07,,
292.47,5.27E+06,,
292.51,2.84E+06,,
292.55,1.47E+06,,
292.59,7.33E+05,,
292.64,2.92E+05,,
292.68,1.34E+05,,
292.72,5.91E+04,,
292.76,2.51E+04,,
292.81,8.19E+03,,
292.85,3.20E+03,,
292.89,1.21E+03,,
292.93,4.37E+02,,
292.98,1.17E+02,,
293.02,3.89E+01,,
293.06,1.25E+01,,
293.1,3.85E+00,,
293.15,8.42E-01,,
293.19,2.39E-01,,
293.23,6.55E-02,,
293.27,1.72E-02,,
293.32,3.09E-03,,
293.36,7.47E-04,,
293.4,1.74E-04,,
293.44,3.91E-05,,
293.49,5.74E-06,,
293.53,1.18E-06,,
293.57,2.35E-07,,
321.04,2.34E-08,,
321.08,1.02E-07,,
321.12,4.31E-07,,
321.16,1.77E-06,,
321.21,9.88E-06,,
321.25,3.78E-05,,
321.29,1.40E-04,,
321.33,5.05E-04,,
321.38,2.40E-03,,
321.42,8.06E-03,,
321.46,2.63E-02,,
321.5,8.29E-02,,
321.55,3.35E-01,,
321.59,9.87E-01,,
321.63,2.82E+00,,
321.67,7.82E+00,,
321.72,2.68E+01,,
321.76,6.94E+01,,
321.8,1.74E+02,,
321.84,4.24E+02,,
321.89,1.24E+03,,
321.93,2.81E+03,,
321.97,6.18E+03,,
322.01,1.32E+04,,
322.06,3.27E+04,,
322.1,6.52E+04,,
322.14,1.26E+05,,
322.18,2.36E+05,,
322.23,4.97E+05,,
322.27,8.70E+05,,
322.31,1.48E+06,,
322.35,2.43E+06,,
322.4,4.34E+06,,
322.44,6.67E+06,,
322.48,9.94E+06,,
322.52,1.44E+07,,
322.57,2.18E+07,,
322.61,2.94E+07,,
322.65,3.84E+07,,
322.69,4.88E+07,,
322.74,6.29E+07,,
322.78,7.44E+07,,
322.82,8.54E+07,,
322.86,9.51E+07,,
322.91,1.04E+08,,
322.95,1.08E+08,,
322.99,1.09E+08,,
323.03,1.07E+08,,
323.08,9.92E+07,,
323.12,9.05E+07,,
323.16,8.00E+07,,
323.2,6.87E+07,,
323.25,5.43E+07,,
323.29,4.35E+07,,
323.33,3.37E+07,,
323.38,2.36E+07,,
323.42,1.71E+07,,
323.46,1.20E+07,,
323.5,8.17E+06,,
323.55,4.85E+06,,
323.59,3.08E+06,,
323.63,1.90E+06,,
323.67,1.14E+06,,
323.72,5.73E+05,,
323.76,3.20E+05,,
323.8,1.73E+05,,
323.84,9.10E+04,,
323.89,3.90E+04,,
323.93,1.91E+04,,
323.97,9.07E+03,,
324.01,4.18E+03,,
324.06,1.52E+03,,
324.1,6.54E+02,,
324.14,2.73E+02,,
324.18,1.10E+02,,
324.23,3.41E+01,,
324.27,1.29E+01,,
324.31,4.72E+00,,
324.35,1.68E+00,,
324.4,4.40E-01,,
324.44,1.46E-01,,
324.48,4.68E-02,,
324.52,1.46E-02,,
324.57,3.26E-03,,
324.61,9.47E-04,,
324.65,2.67E-04,,
324.69,7.31E-05,,
324.74,1.39E-05,,
324.78,3.54E-06,,
324.82,8.76E-07,,
324.86,2.10E-07,,
324.91,3.39E-08,,
349.82,9.31E-07,,
349.86,3.57E-06,,
349.9,1.33E-05,,
349.95,6.67E-05,,
349.99,2.35E-04,,
350.03,8.08E-04,,
350.07,2.70E-03,,
350.12,1.18E-02,,
350.16,3.73E-02,,
350.2,1.15E-01,,
350.25,4.50E-01,,
350.29,1.31E+00,,
350.33,3.70E+00,,
350.37,1.02E+01,,
350.42,3.49E+01,,
350.46,9.09E+01,,
350.5,2.30E+02,,
350.54,5.69E+02,,
350.59,1.70E+03,,
350.63,3.96E+03,,
350.67,9.00E+03,,
350.71,1.99E+04,,
350.76,5.18E+04,,
350.8,1.08E+05,,
350.84,2.20E+05,,
350.88,4.37E+05,,
350.93,9.92E+05,,
350.97,1.86E+06,,
351.01,3.38E+06,,
351.05,6.01E+06,,
351.1,1.19E+07,,
351.14,1.99E+07,,
351.18,3.26E+07,,
351.22,5.19E+07,,
351.27,8.95E+07,,
351.31,1.34E+08,,
351.35,1.97E+08,,
351.39,2.81E+08,,
351.44,4.22E+08,,
351.48,5.68E+08,,
351.52,7.45E+08,,
351.56,9.52E+08,,
351.61,1.25E+09,,
351.65,1.51E+09,,
351.69,1.77E+09,,
351.73,2.03E+09,,
351.78,2.32E+09,,
351.82,2.50E+09,,
351.86,2.63E+09,,
351.9,2.70E+09,,
351.95,2.69E+09,,
351.99,2.61E+09,,
352.03,2.46E+09,,
352.07,2.26E+09,,
352.12,1.97E+09,,
352.16,1.71E+09,,
352.2,1.44E+09,,
352.24,1.19E+09,,
352.29,9.09E+08,,
352.33,7.14E+08,,
352.37,5.52E+08,,
352.41,4.24E+08,,
352.46,3.08E+08,,
352.5,2.47E+08,,
352.54,2.11E+08,,
352.58,1.94E+08,,
352.63,1.95E+08,,
352.67,2.08E+08,,
352.71,2.28E+08,,
352.75,2.52E+08,,
352.8,2.80E+08,,
352.84,3.00E+08,,
352.88,3.15E+08,,
352.92,3.22E+08,,
352.97,3.20E+08,,
353.01,3.10E+08,,
353.05,2.92E+08,,
353.09,2.69E+08,,
353.14,2.34E+08,,
353.18,2.03E+08,,
353.22,1.72E+08,,
353.26,1.42E+08,,
353.31,1.07E+08,,
353.35,8.36E+07,,
353.39,6.34E+07,,
353.43,4.69E+07,,
353.48,3.10E+07,,
353.52,2.16E+07,,
353.56,1.47E+07,,
353.6,9.76E+06,,
353.65,5.63E+06,,
353.69,3.52E+06,,
353.73,2.15E+06,,
353.77,1.28E+06,,
353.82,6.43E+05,,
353.86,3.61E+05,,
353.9,1.97E+05,,
353.94,1.05E+05,,
353.99,4.62E+04,,
354.03,2.32E+04,,
354.07,1.14E+04,,
354.11,5.44E+03,,
354.16,2.08E+03,,
354.2,9.40E+02,,
354.24,4.13E+02,,
354.28,1.77E+02,,
354.33,5.92E+01,,
354.37,2.39E+01,,
354.41,9.42E+00,,
354.45,3.62E+00,,
354.5,1.06E+00,,
354.54,3.83E-01,,
354.58,1.35E-01,,
354.62,4.66E-02,,
354.67,1.19E-02,,
354.71,3.85E-03,,
354.75,1.22E-03,,
354.79,3.77E-04,,
354.84,8.36E-05,,
354.88,2.44E-05,,
354.92,6.92E-06,,
354.96,1.92E-06,,
355.01,3.71E-07,,
355.05,9.69E-08,,
375.29,1.93E-07,,
375.33,6.85E-07,,
375.37,2.38E-06,,
375.41,8.09E-06,,
375.46,3.62E-05,,
375.5,1.17E-04,,
375.54,3.69E-04,,
375.58,1.14E-03,,
375.63,4.53E-03,,
375.67,1.33E-02,,
375.71,3.82E-02,,
375.75,1.07E-01,,
375.8,3.78E-01,,
375.84,1.01E+00,,
375.88,2.63E+00,,
375.92,6.72E+00,,
375.97,2.10E+01,,
376.01,5.10E+01,,
376.05,1.21E+02,,
376.09,2.81E+02,,
376.14,7.79E+02,,
376.18,1.72E+03,,
376.22,3.71E+03,,
376.26,7.82E+03,,
376.31,1.93E+04,,
376.35,3.86E+04,,
376.39,7.57E+04,,
376.43,1.45E+05,,
376.48,3.17E+05,,
376.52,5.79E+05,,
376.56,1.03E+06,,
376.6,1.80E+06,,
376.65,3.49E+06,,
376.69,5.78E+06,,
376.73,9.36E+06,,
376.77,1.48E+07,,
376.82,2.56E+07,,
376.86,3.85E+07,,
376.9,5.67E+07,,
376.94,8.16E+07,,
376.99,1.25E+08,,
377.03,1.71E+08,,
377.07,2.29E+08,,
377.11,3.00E+08,,
377.16,4.06E+08,,
377.2,5.06E+08,,
377.24,6.16E+08,,
377.29,7.62E+08,,
377.33,8.82E+08,,
377.37,9.98E+08,,
377.41,1.10E+09,,
377.46,1.21E+09,,
377.5,1.28E+09,,
377.54,1.31E+09,,
377.58,1.32E+09,,
377.63,1.29E+09,,
377.67,1.23E+09,,
377.71,1.15E+09,,
377.75,1.05E+09,,
377.8,9.12E+08,,
377.84,7.92E+08,,
377.88,6.73E+08,,
377.92,5.60E+08,,
377.97,4.30E+08,,
378.01,3.40E+08,,
378.05,2.63E+08,,
378.09,1.98E+08,,
378.14,1.35E+08,,
378.18,9.71E+07,,
378.22,6.82E+07,,
378.26,4.68E+07,,
378.31,2.84E+07,,
378.35,1.85E+07,,
378.39,1.18E+07,,
378.43,7.38E+06,,
378.48,3.97E+06,,
378.52,2.35E+06,,
378.56,1.37E+06,,
378.6,7.75E+05,,
378.65,3.70E+05,,
378.69,1.99E+05,,
378.73,1.05E+05,,
378.77,5.42E+04,,
378.82,2.30E+04,,
378.86,1.13E+04,,
378.9,5.40E+03,,
378.94,2.53E+03,,
378.99,9.51E+02,,
379.03,4.24E+02,,
379.07,1.85E+02,,
379.11,7.87E+01,,
379.16,2.63E+01,,
379.2,1.06E+01,,
379.24,4.22E+00,,
379.28,1.63E+00,,
379.33,4.84E-01,,
379.37,1.78E-01,,
379.41,6.41E-02,,
379.45,2.26E-02,,
379.5,5.94E-03,,
379.54,1.99E-03,,
379.58,6.51E-04,,
379.62,2.08E-04,,
379.67,4.86E-05,,
379.71,1.48E-05,,
379.75,4.40E-06,,
379.79,1.28E-06,,
379.84,2.65E-07,,
531.83,1.38E-07,,
531.87,3.39E-07,,
531.91,8.19E-07,,
531.96,2.43E-06,,
532,5.73E-06,,
532.04,1.34E-05,,
532.08,3.08E-05,,
532.13,8.62E-05,,
532.17,1.94E-04,,
532.21,4.31E-04,,
532.26,1.15E-03,,
532.3,2.50E-03,,
532.34,5.36E-03,,
532.38,1.14E-02,,
532.43,2.86E-02,,
532.47,5.92E-02,,
532.51,1.21E-01,,
532.55,2.45E-01,,
532.6,5.81E-01,,
532.64,1.15E+00,,
532.68,2.24E+00,,
532.72,4.31E+00,,
532.77,9.65E+00,,
532.81,1.81E+01,,
532.85,3.37E+01,,
532.89,6.20E+01,,
532.94,1.31E+02,,
532.98,2.35E+02,,
533.02,4.16E+02,,
533.06,7.29E+02,,
533.11,1.45E+03,,
533.15,2.48E+03,,
533.19,4.19E+03,,
533.23,7.01E+03,,
533.28,1.31E+04,,
533.32,2.14E+04,,
533.36,3.45E+04,,
533.4,5.50E+04,,
533.45,9.70E+04,,
533.49,1.51E+05,,
533.53,2.32E+05,,
533.57,3.53E+05,,
533.62,5.87E+05,,
533.66,8.70E+05,,
533.7,1.28E+06,,
533.74,1.85E+06,,
533.79,2.90E+06,,
533.83,4.10E+06,,
533.87,5.73E+06,,
533.91,7.92E+06,,
533.96,1.17E+07,,
534,1.58E+07,,
534.04,2.10E+07,,
534.08,2.77E+07,,
534.13,3.86E+07,,
534.17,4.96E+07,,
534.21,6.31E+07,,
534.25,7.94E+07,,
534.3,1.04E+08,,
534.34,1.28E+08,,
534.38,1.55E+08,,
534.42,1.86E+08,,
534.47,2.29E+08,,
534.51,2.68E+08,,
534.55,3.10E+08,,
534.59,3.54E+08,,
534.64,4.13E+08,,
534.68,4.60E+08,,
534.72,5.07E+08,,
534.76,5.53E+08,,
534.81,6.07E+08,,
534.85,6.45E+08,,
534.89,6.79E+08,,
534.93,7.06E+08,,
534.98,7.30E+08,,
535.02,7.40E+08,,
535.06,7.42E+08,,
535.1,7.36E+08,,
535.15,7.17E+08,,
535.19,6.93E+08,,
535.23,6.63E+08,,
535.27,6.27E+08,,
535.32,5.75E+08,,
535.36,5.31E+08,,
535.4,4.84E+08,,
535.44,4.36E+08,,
535.49,3.77E+08,,
535.53,3.32E+08,,
535.57,2.89E+08,,
535.61,2.48E+08,,
535.66,2.02E+08,,
535.7,1.70E+08,,
535.74,1.41E+08,,
535.78,1.15E+08,,
535.83,8.86E+07,,
535.87,7.09E+07,,
535.91,5.60E+07,,
535.95,4.38E+07,,
536,3.17E+07,,
536.04,2.42E+07,,
536.08,1.82E+07,,
536.12,1.36E+07,,
536.17,9.28E+06,,
536.21,6.75E+06,,
536.25,4.85E+06,,
536.29,3.45E+06,,
536.34,2.22E+06,,
536.38,1.54E+06,,
536.42,1.06E+06,,
536.46,7.15E+05,,
536.51,4.33E+05,,
536.55,2.87E+05,,
536.59,1.87E+05,,
536.63,1.21E+05,,
536.68,6.92E+04,,
536.72,4.36E+04,,
536.76,2.72E+04,,
536.8,1.68E+04,,
536.85,9.02E+03,,
536.89,5.43E+03,,
536.93,3.23E+03,,
536.97,1.90E+03,,
537.02,9.62E+02,,
537.06,5.52E+02,,
537.1,3.13E+02,,
537.14,1.75E+02,,
537.19,8.38E+01,,
537.23,4.58E+01,,
537.27,2.48E+01,,
537.31,1.33E+01,,
537.36,5.96E+00,,
537.4,3.11E+00,,
537.44,1.60E+00,,
537.48,8.18E-01,,
537.53,3.47E-01,,
537.57,1.73E-01,,
537.61,8.48E-02,,
537.65,4.12E-02,,
537.7,1.65E-02,,
537.74,7.82E-03,,
537.78,3.67E-03,,
537.82,1.70E-03,,
537.87,6.40E-04,,
537.91,2.90E-04,,
537.95,1.30E-04,,
537.99,5.73E-05,,
538.04,2.03E-05,,
538.08,8.77E-06,,
538.12,3.74E-06,,
538.16,1.58E-06,,
538.21,5.27E-07,,
538.25,2.17E-07,,
