Wavelength,Spectra,,,
170.32,2.30E-11,,,
170.36,3.61E-10,,,
170.4,5.07E-09,,,
170.45,1.18E-07,,,
170.49,1.30E-06,,,
170.53,1.28E-05,,,
170.57,1.14E-04,,,
170.62,1.49E-03,,,
170.66,1.03E-02,,,
170.7,6.39E-02,,,
170.74,3.55E-01,,,
170.79,2.61E+00,,,
170.83,1.14E+01,,,
170.87,4.43E+01,,,
170.91,1.55E+02,,,
170.96,6.38E+02,,,
171,1.75E+03,,,
171.04,4.30E+03,,,
171.08,9.47E+03,,,
171.13,2.18E+04,,,
171.17,3.76E+04,,,
171.21,5.82E+04,,,
171.25,8.07E+04,,,
171.3,1.04E+05,,,
171.34,1.13E+05,,,
171.38,1.10E+05,,,
171.42,9.60E+04,,,
171.47,6.95E+04,,,
171.51,4.74E+04,,,
171.55,2.90E+04,,,
171.59,1.60E+04,,,
171.64,6.47E+03,,,
171.68,2.78E+03,,,
171.72,1.07E+03,,,
171.76,3.70E+02,,,
171.81,8.41E+01,,,
171.85,2.28E+01,,,
171.89,5.58E+00,,,
171.93,1.60E+00,,,
171.98,3.49E+00,,,
172.02,1.63E+01,,,
172.06,7.13E+01,,,
172.1,2.80E+02,,,
172.15,1.34E+03,,,
172.19,4.13E+03,,,
172.23,1.15E+04,,,
172.27,2.85E+04,,,
172.32,7.68E+04,,,
172.36,1.50E+05,,,
172.4,2.64E+05,,,
172.44,4.17E+05,,,
172.49,6.35E+05,,,
172.53,7.87E+05,,,
172.57,8.76E+05,,,
172.61,8.76E+05,,,
172.66,7.53E+05,,,
172.7,5.91E+05,,,
172.74,4.17E+05,,,
172.78,2.64E+05,,,
172.83,1.28E+05,,,
172.87,6.39E+04,,,
172.91,2.85E+04,,,
172.95,1.15E+04,,,
173,3.14E+03,,,
173.04,9.91E+02,,,
173.08,2.80E+02,,,
173.12,7.13E+01,,,
173.17,1.11E+01,,,
173.21,2.21E+00,,,
173.25,3.96E-01,,,
173.29,6.37E-02,,,
173.34,5.59E-03,,,
173.38,7.07E-04,,,
173.42,8.03E-05,,,
173.46,8.19E-06,,,
173.51,4.06E-07,,,
173.55,3.25E-08,,,
173.59,2.34E-09,,,
173.63,1.51E-10,,,
175.8,1.40E-10,,,
175.85,3.70E-09,,,
175.89,4.53E-08,,,
175.93,5.02E-07,,,
175.97,5.02E-06,,,
176.02,7.72E-05,,,
176.06,6.13E-04,,,
176.1,4.39E-03,,,
176.14,2.84E-02,,,
176.19,2.54E-01,,,
176.23,1.31E+00,,,
176.27,6.06E+00,,,
176.31,2.54E+01,,,
176.36,1.32E+02,,,
176.4,4.38E+02,,,
176.44,1.32E+03,,,
176.48,3.57E+03,,,
176.53,1.08E+04,,,
176.57,2.32E+04,,,
176.61,4.50E+04,,,
176.65,7.90E+04,,,
176.7,1.38E+05,,,
176.74,1.93E+05,,,
176.78,2.43E+05,,,
176.82,2.76E+05,,,
176.87,2.80E+05,,,
176.91,2.53E+05,,,
176.95,2.06E+05,,,
176.99,1.52E+05,,,
177.04,8.95E+04,,,
177.08,5.23E+04,,,
177.12,2.76E+04,,,
177.16,1.32E+04,,,
177.21,4.51E+03,,,
177.25,1.70E+03,,,
177.29,5.82E+02,,,
177.33,1.80E+02,,,
177.38,3.57E+01,,,
177.42,8.75E+00,,,
177.46,1.93E+00,,,
177.5,3.86E-01,,,
177.55,4.46E-02,,,
177.59,7.07E-03,,,
177.63,1.01E-03,,,
177.67,1.31E-04,,,
177.72,8.78E-06,,,
177.76,9.01E-07,,,
177.8,8.35E-08,,,
177.84,6.99E-09,,,
177.89,2.72E-10,,,
177.93,1.81E-11,,,
178.35,8.05E-11,,,
178.4,2.07E-09,,,
178.44,2.48E-08,,,
178.48,2.70E-07,,,
178.52,2.65E-06,,,
178.57,4.02E-05,,,
178.61,3.16E-04,,,
178.65,2.25E-03,,,
178.69,1.45E-02,,,
178.74,1.30E-01,,,
178.78,6.69E-01,,,
178.82,3.12E+00,,,
178.86,1.32E+01,,,
178.91,6.95E+01,,,
178.95,2.35E+02,,,
178.99,7.19E+02,,,
179.03,1.99E+03,,,
179.08,6.19E+03,,,
179.12,1.37E+04,,,
179.16,2.75E+04,,,
179.2,4.99E+04,,,
179.25,9.15E+04,,,
179.29,1.33E+05,,,
179.33,1.75E+05,,,
179.37,2.08E+05,,,
179.42,2.24E+05,,,
179.46,2.14E+05,,,
179.5,1.84E+05,,,
179.54,1.44E+05,,,
179.59,9.15E+04,,,
179.63,5.70E+04,,,
179.67,3.22E+04,,,
179.71,1.65E+04,,,
179.76,6.19E+03,,,
179.8,2.53E+03,,,
179.84,9.36E+02,,,
179.88,3.14E+02,,,
179.93,6.95E+01,,,
179.97,1.86E+01,,,
180.01,4.52E+00,,,
180.05,9.92E-01,,,
180.1,1.30E-01,,,
180.14,2.28E-02,,,
180.18,3.62E-03,,,
180.22,5.21E-04,,,
180.27,4.02E-05,,,
180.31,4.63E-06,,,
180.35,4.82E-07,,,
180.39,4.55E-08,,,
180.44,2.07E-09,,,
180.48,1.56E-10,,,
180.52,1.07E-11,,,
183.97,8.50E-11,,,
184.01,1.08E-09,,,
184.05,1.26E-08,,,
184.09,1.33E-07,,,
184.14,2.23E-06,,,
184.18,1.91E-05,,,
184.22,1.49E-04,,,
184.26,1.06E-03,,,
184.31,1.08E-02,,,
184.35,6.23E-02,,,
184.39,3.27E-01,,,
184.43,1.56E+00,,,
184.48,9.70E+00,,,
184.52,3.76E+01,,,
184.56,1.33E+02,,,
184.6,4.26E+02,,,
184.65,1.61E+03,,,
184.69,4.19E+03,,,
184.73,9.95E+03,,,
184.77,2.15E+04,,,
184.82,4.94E+04,,,
184.86,8.66E+04,,,
184.9,1.38E+05,,,
184.94,2.01E+05,,,
184.99,2.81E+05,,,
185.03,3.31E+05,,,
185.07,3.55E+05,,,
185.11,3.46E+05,,,
185.16,2.95E+05,,,
185.2,2.34E+05,,,
185.24,1.68E+05,,,
185.28,1.11E+05,,,
185.33,5.73E+04,,,
185.37,3.05E+04,,,
185.41,1.48E+04,,,
185.45,6.53E+03,,,
185.5,2.06E+03,,,
185.54,7.38E+02,,,
185.58,2.41E+02,,,
185.62,7.14E+01,,,
185.67,1.37E+01,,,
185.71,3.30E+00,,,
185.75,7.24E-01,,,
185.79,1.44E-01,,,
185.84,1.69E-02,,,
185.88,2.73E-03,,,
185.92,4.03E-04,,,
185.96,5.40E-05,,,
186.01,3.85E-06,,,
186.05,4.18E-07,,,
186.09,4.15E-08,,,
186.13,3.74E-09,,,
186.18,1.62E-10,,,
194.85,1.52E-11,,,
194.89,1.74E-10,,,
194.93,1.83E-09,,,
194.98,3.07E-08,,,
195.02,2.68E-07,,,
195.06,2.15E-06,,,
195.1,1.58E-05,,,
195.15,1.71E-04,,,
195.19,1.05E-03,,,
195.23,5.89E-03,,,
195.27,3.05E-02,,,
195.32,2.12E-01,,,
195.36,9.09E-01,,,
195.4,3.59E+00,,,
195.45,1.78E+01,,,
195.49,5.83E+01,,,
195.53,1.76E+02,,,
195.57,4.87E+02,,,
195.62,1.55E+03,,,
195.66,3.57E+03,,,
195.7,7.54E+03,,,
195.74,1.47E+04,,,
195.79,3.00E+04,,,
195.83,4.85E+04,,,
195.87,7.20E+04,,,
195.91,9.84E+04,,,
195.96,1.29E+05,,,
196,1.47E+05,,,
196.04,1.53E+05,,,
196.08,1.47E+05,,,
196.13,1.24E+05,,,
196.17,9.84E+04,,,
196.21,7.20E+04,,,
196.25,4.85E+04,,,
196.3,2.63E+04,,,
196.34,1.47E+04,,,
196.38,7.54E+03,,,
196.42,3.57E+03,,,
196.47,1.24E+03,,,
196.51,4.87E+02,,,
196.55,1.76E+02,,,
196.59,5.83E+01,,,
196.64,1.31E+01,,,
196.68,3.59E+00,,,
196.72,9.09E-01,,,
196.76,2.12E-01,,,
196.81,3.05E-02,,,
196.85,5.89E-03,,,
196.89,1.05E-03,,,
196.93,1.71E-04,,,
196.98,1.58E-05,,,
197.02,2.15E-06,,,
197.06,2.68E-07,,,
197.1,3.07E-08,,,
197.15,1.83E-09,,,
197.19,1.74E-10,,,
197.23,5.83E-11,,,
197.27,4.74E-10,,,
197.32,8.47E-09,,,
197.36,7.75E-08,,,
197.4,6.55E-07,,,
197.44,5.10E-06,,,
197.49,5.91E-05,,,
197.53,3.84E-04,,,
197.57,2.29E-03,,,
197.61,1.27E-02,,,
197.66,9.54E-02,,,
197.7,4.39E-01,,,
197.74,1.86E+00,,,
197.78,7.29E+00,,,
197.83,3.59E+01,,,
197.87,1.18E+02,,,
197.91,3.56E+02,,,
197.95,9.99E+02,,,
198,3.26E+03,,,
198.04,7.75E+03,,,
198.08,1.72E+04,,,
198.12,3.55E+04,,,
198.17,8.09E+04,,,
198.21,1.46E+05,,,
198.25,2.51E+05,,,
198.29,4.07E+05,,,
198.34,6.95E+05,,,
198.38,1.01E+06,,,
198.42,1.38E+06,,,
198.46,1.78E+06,,,
198.51,2.24E+06,,,
198.55,2.51E+06,,,
198.59,2.63E+06,,,
198.63,2.58E+06,,,
198.68,2.32E+06,,,
198.72,2.00E+06,,,
198.76,1.64E+06,,,
198.8,1.31E+06,,,
198.85,9.41E+05,,,
198.89,7.08E+05,,,
198.93,5.20E+05,,,
198.97,3.69E+05,,,
199.02,2.27E+05,,,
199.06,1.44E+05,,,
199.1,8.61E+04,,,
199.14,4.80E+04,,,
199.19,2.08E+04,,,
199.23,9.77E+03,,,
199.27,4.25E+03,,,
199.31,1.70E+03,,,
199.36,4.86E+02,,,
199.4,1.64E+02,,,
199.44,5.41E+01,,,
199.48,2.98E+01,,,
199.53,8.37E+01,,,
199.57,2.80E+02,,,
199.61,8.90E+02,,,
199.65,2.62E+03,,,
199.7,8.99E+03,,,
199.74,2.21E+04,,,
199.78,5.01E+04,,,
199.82,1.05E+05,,,
199.87,2.36E+05,,,
199.91,4.13E+05,,,
199.95,6.66E+05,,,
199.99,9.93E+05,,,
200.04,1.46E+06,,,
200.08,1.82E+06,,,
200.12,2.10E+06,,,
200.16,2.22E+06,,,
200.21,2.14E+06,,,
200.25,1.90E+06,,,
200.29,1.56E+06,,,
200.33,1.18E+06,,,
200.38,7.42E+05,,,
200.42,4.69E+05,,,
200.46,2.73E+05,,,
200.5,1.47E+05,,,
200.55,6.07E+04,,,
200.59,2.73E+04,,,
200.63,1.13E+04,,,
200.67,4.35E+03,,,
200.72,1.17E+03,,,
200.76,3.76E+02,,,
200.8,1.11E+02,,,
200.84,3.04E+01,,,
200.89,5.36E+00,,,
200.93,1.22E+00,,,
200.97,2.58E-01,,,
201.01,5.02E-02,,,
201.06,5.79E-03,,,
201.1,9.42E-04,,,
201.14,1.41E-04,,,
201.18,1.96E-05,,,
201.23,1.48E-06,,,
201.27,1.71E-07,,,
201.31,1.83E-08,,,
201.35,1.97E-09,,,
201.4,2.95E-09,,,
201.44,2.69E-08,,,
201.48,2.26E-07,,,
201.52,1.76E-06,,,
201.57,2.05E-05,,,
201.61,1.34E-04,,,
201.65,8.08E-04,,,
201.69,4.51E-03,,,
201.74,3.48E-02,,,
201.78,1.63E-01,,,
201.82,7.07E-01,,,
201.86,2.84E+00,,,
201.91,1.44E+01,,,
201.95,4.86E+01,,,
201.99,1.51E+02,,,
202.03,4.36E+02,,,
202.08,1.47E+03,,,
202.12,3.55E+03,,,
202.16,7.93E+03,,,
202.21,1.95E+04,,,
202.25,3.65E+04,,,
202.29,6.34E+04,,,
202.33,1.02E+05,,,
202.38,1.65E+05,,,
202.42,2.22E+05,,,
202.46,2.77E+05,,,
202.5,3.20E+05,,,
202.55,3.44E+05,,,
202.59,3.34E+05,,,
202.63,3.04E+05,,,
202.67,2.63E+05,,,
202.72,2.16E+05,,,
202.76,2.00E+05,,,
202.8,2.16E+05,,,
202.84,2.72E+05,,,
202.89,3.92E+05,,,
202.93,5.16E+05,,,
202.97,6.43E+05,,,
203.01,7.47E+05,,,
203.06,8.11E+05,,,
203.1,7.95E+05,,,
203.14,7.22E+05,,,
203.18,6.06E+05,,,
203.23,4.37E+05,,,
203.27,3.08E+05,,,
203.31,2.01E+05,,,
203.35,1.22E+05,,,
203.4,6.36E+04,,,
203.44,4.98E+04,,,
203.48,8.23E+04,,,
203.52,2.19E+05,,,
203.57,7.89E+05,,,
203.61,2.06E+06,,,
203.65,4.98E+06,,,
203.69,1.12E+07,,,
203.74,2.74E+07,,,
203.78,5.17E+07,,,
203.82,9.02E+07,,,
203.86,1.46E+08,,,
203.91,2.39E+08,,,
203.95,3.24E+08,,,
203.99,4.09E+08,,,
204.03,4.76E+08,,,
204.08,5.18E+08,,,
204.12,5.08E+08,,,
204.16,4.62E+08,,,
204.2,3.88E+08,,,
204.25,2.81E+08,,,
204.29,1.99E+08,,,
204.33,1.31E+08,,,
204.37,7.96E+07,,,
204.42,4.00E+07,,,
204.46,2.47E+07,,,
204.5,2.23E+07,,,
204.54,3.41E+07,,,
204.59,7.80E+07,,,
204.63,1.50E+08,,,
204.67,2.69E+08,,,
204.71,4.49E+08,,,
204.76,7.66E+08,,,
204.8,1.08E+09,,,
204.84,1.41E+09,,,
204.88,1.70E+09,,,
204.93,1.94E+09,,,
204.97,1.98E+09,,,
205.01,1.87E+09,,,
205.05,1.64E+09,,,
205.1,1.24E+09,,,
205.14,9.17E+08,,,
205.18,6.27E+08,,,
205.22,3.97E+08,,,
205.27,2.01E+08,,,
205.31,1.07E+08,,,
205.35,5.31E+07,,,
205.39,2.43E+07,,,
205.44,8.23E+06,,,
205.48,3.18E+06,,,
205.52,1.14E+06,,,
205.56,3.77E+05,,,
205.61,8.50E+04,,,
205.65,2.37E+04,,,
205.69,6.14E+03,,,
205.73,1.47E+03,,,
205.78,2.22E+02,,,
205.82,4.48E+01,,,
205.86,8.39E+00,,,
205.9,1.46E+00,,,
205.95,1.46E-01,,,
205.99,2.14E-02,,,
206.03,2.89E-03,,,
206.07,3.63E-04,,,
206.12,2.44E-05,,,
206.16,2.58E-06,,,
206.2,2.52E-07,,,
206.58,7.50E-10,,,
206.63,1.28E-08,,,
206.67,4.33E-06,,,
206.71,4.12E-05,,,
206.75,3.65E-04,,,
206.8,5.02E-03,,,
206.84,3.77E-02,,,
206.88,2.63E-01,,,
206.92,1.70E+00,,,
206.97,1.58E+01,,,
207.01,8.67E+01,,,
207.05,4.41E+02,,,
207.09,2.09E+03,,,
207.14,1.31E+04,,,
207.18,5.25E+04,,,
207.22,1.95E+05,,,
207.26,6.75E+05,,,
207.31,2.86E+06,,,
207.35,8.37E+06,,,
207.39,2.27E+07,,,
207.43,5.73E+07,,,
207.48,1.64E+08,,,
207.52,3.51E+08,,,
207.56,6.95E+08,,,
207.6,1.28E+09,,,
207.65,2.48E+09,,,
207.69,3.86E+09,,,
207.73,5.59E+09,,,
207.77,7.51E+09,,,
207.82,9.80E+09,,,
207.86,1.12E+10,,,
207.9,1.18E+10,,,
207.94,1.16E+10,,,
207.99,1.02E+10,,,
208.03,8.47E+09,,,
208.07,6.54E+09,,,
208.11,4.68E+09,,,
208.16,2.78E+09,,,
208.2,1.69E+09,,,
208.24,9.51E+08,,,
208.28,4.98E+08,,,
208.33,2.00E+08,,,
208.37,8.84E+07,,,
208.41,3.64E+07,,,
208.45,1.39E+07,,,
208.5,3.76E+06,,,
208.54,1.22E+06,,,
208.58,3.66E+05,,,
208.62,1.03E+05,,,
208.67,2.49E+04,,,
208.71,2.37E+04,,,
208.75,5.86E+04,,,
208.8,2.20E+05,,,
208.84,6.28E+05,,,
208.88,1.74E+06,,,
208.92,4.64E+06,,,
208.97,1.48E+07,,,
209.01,3.50E+07,,,
209.05,7.80E+07,,,
209.09,1.63E+08,,,
209.14,3.70E+08,,,
209.18,6.60E+08,,,
209.22,1.10E+09,,,
209.26,1.69E+09,,,
209.31,2.64E+09,,,
209.35,3.46E+09,,,
209.39,4.23E+09,,,
209.43,4.80E+09,,,
209.48,5.09E+09,,,
209.52,4.90E+09,,,
209.56,4.40E+09,,,
209.6,3.67E+09,,,
209.65,2.66E+09,,,
209.69,1.92E+09,,,
209.73,1.33E+09,,,
209.77,9.39E+08,,,
209.82,7.22E+08,,,
209.86,7.32E+08,,,
209.9,8.57E+08,,,
209.94,1.05E+09,,,
209.99,1.29E+09,,,
210.03,1.43E+09,,,
210.07,1.48E+09,,,
210.11,1.43E+09,,,
210.16,1.24E+09,,,
210.2,1.03E+09,,,
210.24,8.26E+08,,,
210.28,6.59E+08,,,
210.33,5.56E+08,,,
210.37,5.78E+08,,,
210.41,6.92E+08,,,
210.45,8.80E+08,,,
210.5,1.17E+09,,,
210.54,1.38E+09,,,
210.58,1.53E+09,,,
210.62,1.58E+09,,,
210.67,1.50E+09,,,
210.71,1.32E+09,,,
210.75,1.08E+09,,,
210.79,8.24E+08,,,
210.84,5.31E+08,,,
210.88,3.45E+08,,,
210.92,2.08E+08,,,
210.96,1.17E+08,,,
211.01,5.15E+07,,,
211.05,2.49E+07,,,
211.09,1.15E+07,,,
211.13,5.39E+06,,,
211.18,2.68E+06,,,
211.22,2.20E+06,,,
211.26,2.33E+06,,,
211.3,2.87E+06,,,
211.35,4.63E+06,,,
211.39,8.25E+06,,,
211.43,1.64E+07,,,
211.47,3.35E+07,,,
211.52,7.82E+07,,,
211.56,1.45E+08,,,
211.6,2.51E+08,,,
211.64,4.06E+08,,,
211.69,6.71E+08,,,
211.73,9.27E+08,,,
211.77,1.20E+09,,,
211.81,1.44E+09,,,
211.86,1.65E+09,,,
211.9,1.72E+09,,,
211.94,1.68E+09,,,
211.98,1.56E+09,,,
212.03,1.34E+09,,,
212.07,1.14E+09,,,
212.11,9.44E+08,,,
212.15,7.73E+08,,,
212.2,5.90E+08,,,
212.24,4.64E+08,,,
212.28,3.55E+08,,,
212.32,2.60E+08,,,
212.37,1.65E+08,,,
212.41,1.07E+08,,,
212.45,6.52E+07,,,
212.49,3.73E+07,,,
212.54,1.68E+07,,,
212.58,8.24E+06,,,
212.62,3.76E+06,,,
212.66,1.60E+06,,,
212.71,4.98E+05,,,
212.75,1.81E+05,,,
212.79,6.11E+04,,,
212.83,1.93E+04,,,
212.88,4.11E+03,,,
212.92,1.10E+03,,,
212.96,2.76E+02,,,
213,6.42E+01,,,
213.05,9.40E+00,,,
213.09,1.86E+00,,,
213.13,3.45E-01,,,
213.17,5.93E-02,,,
213.22,5.95E-03,,,
213.26,8.73E-04,,,
213.3,1.19E-04,,,
213.34,1.52E-05,,,
213.39,1.04E-06,,,
213.43,1.13E-07,,,
215.09,4.50E-10,,,
215.13,3.87E-09,,,
215.17,3.11E-08,,,
215.21,2.34E-07,,,
215.26,2.65E-06,,,
215.3,1.71E-05,,,
215.34,1.03E-04,,,
215.38,5.78E-04,,,
215.43,4.55E-03,,,
215.47,2.20E-02,,,
215.51,9.91E-02,,,
215.56,5.92E-01,,,
215.6,2.29E+00,,,
215.64,8.28E+00,,,
215.68,2.80E+01,,,
215.73,1.16E+02,,,
215.77,3.37E+02,,,
215.81,9.12E+02,,,
215.85,2.31E+03,,,
215.9,6.68E+03,,,
215.94,1.45E+04,,,
215.98,2.94E+04,,,
216.02,5.56E+04,,,
216.07,1.12E+05,,,
216.11,1.82E+05,,,
216.15,2.77E+05,,,
216.19,3.92E+05,,,
216.24,5.53E+05,,,
216.28,6.78E+05,,,
216.32,7.88E+05,,,
216.36,8.90E+05,,,
216.41,1.09E+06,,,
216.45,1.49E+06,,,
216.49,2.47E+06,,,
216.53,4.70E+06,,,
216.58,1.09E+07,,,
216.62,2.08E+07,,,
216.66,3.74E+07,,,
216.7,6.32E+07,,,
216.75,1.11E+08,,,
216.79,1.61E+08,,,
216.83,2.19E+08,,,
216.87,2.77E+08,,,
216.92,3.39E+08,,,
216.96,3.69E+08,,,
217,3.76E+08,,,
217.04,3.57E+08,,,
217.09,3.05E+08,,,
217.13,2.48E+08,,,
217.17,1.89E+08,,,
217.21,1.35E+08,,,
217.26,8.01E+07,,,
217.3,4.89E+07,,,
217.34,2.79E+07,,,
217.38,1.49E+07,,,
217.43,6.17E+06,,,
217.47,2.83E+06,,,
217.51,1.22E+06,,,
217.55,5.36E+05,,,
217.6,3.47E+05,,,
217.64,6.18E+05,,,
217.68,1.48E+06,,,
217.72,3.50E+06,,,
217.77,9.49E+06,,,
217.81,1.95E+07,,,
217.85,3.76E+07,,,
217.89,6.77E+07,,,
217.94,1.29E+08,,,
217.98,1.99E+08,,,
218.02,2.88E+08,,,
218.06,3.90E+08,,,
218.11,5.17E+08,,,
218.15,6.02E+08,,,
218.19,6.54E+08,,,
218.23,6.65E+08,,,
218.28,6.18E+08,,,
218.32,5.41E+08,,,
218.36,4.43E+08,,,
218.4,3.40E+08,,,
218.45,2.26E+08,,,
218.49,1.59E+08,,,
218.53,1.18E+08,,,
218.57,1.08E+08,,,
218.62,1.40E+08,,,
218.66,2.04E+08,,,
218.7,3.02E+08,,,
218.74,4.30E+08,,,
218.79,6.18E+08,,,
218.83,7.69E+08,,,
218.87,8.96E+08,,,
218.91,9.81E+08,,,
218.96,1.01E+09,,,
219,9.75E+08,,,
219.04,9.06E+08,,,
219.08,8.32E+08,,,
219.13,7.71E+08,,,
219.17,7.72E+08,,,
219.21,8.25E+08,,,
219.25,9.19E+08,,,
219.3,1.06E+09,,,
219.34,1.16E+09,,,
219.38,1.22E+09,,,
219.42,1.22E+09,,,
219.47,1.13E+09,,,
219.51,9.96E+08,,,
219.55,8.28E+08,,,
219.59,6.48E+08,,,
219.64,4.39E+08,,,
219.68,3.00E+08,,,
219.72,1.92E+08,,,
219.76,1.16E+08,,,
219.81,5.64E+07,,,
219.85,2.95E+07,,,
219.89,1.45E+07,,,
219.93,6.67E+06,,,
219.98,2.31E+06,,,
220.02,9.19E+05,,,
220.06,3.43E+05,,,
220.1,1.20E+05,,,
220.15,2.93E+04,,,
220.19,8.82E+03,,,
220.23,2.49E+03,,,
220.27,6.57E+02,,,
220.32,1.13E+02,,,
220.36,2.58E+01,,,
220.4,5.50E+00,,,
220.44,1.10E+00,,,
220.49,1.33E-01,,,
220.53,2.29E-02,,,
220.57,3.67E-03,,,
220.61,5.53E-04,,,
220.66,4.72E-05,,,
220.7,6.10E-06,,,
220.74,7.40E-07,,,
220.78,8.39E-08,,,
221.25,4.53E-07,,,
221.29,3.81E-06,,,
221.34,5.00E-05,,,
221.38,3.64E-04,,,
221.42,2.49E-03,,,
221.46,1.59E-02,,,
221.51,1.48E-01,,,
221.55,8.21E-01,,,
221.59,4.26E+00,,,
221.63,2.07E+01,,,
221.68,1.37E+02,,,
221.72,5.76E+02,,,
221.76,2.27E+03,,,
221.8,8.40E+03,,,
221.85,3.93E+04,,,
221.89,1.26E+05,,,
221.93,3.77E+05,,,
221.97,1.06E+06,,,
222.02,3.52E+06,,,
222.06,8.56E+06,,,
222.1,1.95E+07,,,
222.14,4.17E+07,,,
222.19,9.83E+07,,,
222.23,1.82E+08,,,
222.27,3.14E+08,,,
222.32,5.70E+08,,,
222.36,8.53E+08,,,
222.4,1.20E+09,,,
222.44,1.58E+09,,,
222.49,2.03E+09,,,
222.53,2.31E+09,,,
222.57,2.46E+09,,,
222.61,2.46E+09,,,
222.66,2.25E+09,,,
222.7,1.94E+09,,,
222.74,1.58E+09,,,
222.78,1.20E+09,,,
222.83,7.76E+08,,,
222.87,5.10E+08,,,
222.91,3.14E+08,,,
222.95,1.82E+08,,,
223,8.34E+07,,,
223.04,4.17E+07,,,
223.08,1.95E+07,,,
223.12,8.56E+06,,,
223.17,2.79E+06,,,
223.21,1.06E+06,,,
223.25,3.77E+05,,,
223.29,1.26E+05,,,
223.34,2.91E+04,,,
223.38,8.40E+03,,,
223.42,2.27E+03,,,
223.46,5.76E+02,,,
223.51,9.66E+01,,,
223.55,3.04E+01,,,
223.59,4.79E+01,,,
223.63,1.86E+02,,,
223.68,1.03E+03,,,
223.72,3.78E+03,,,
223.76,1.30E+04,,,
223.8,4.22E+04,,,
223.85,1.68E+05,,,
223.89,4.70E+05,,,
223.93,1.24E+06,,,
223.97,3.06E+06,,,
224.02,8.66E+06,,,
224.06,1.86E+07,,,
224.1,3.73E+07,,,
224.14,7.05E+07,,,
224.19,1.43E+08,,,
224.23,2.34E+08,,,
224.27,3.60E+08,,,
224.31,5.22E+08,,,
224.36,7.66E+08,,,
224.4,9.78E+08,,,
224.44,1.19E+09,,,
224.48,1.40E+09,,,
224.53,1.66E+09,,,
224.57,1.91E+09,,,
224.61,2.22E+09,,,
224.65,2.62E+09,,,
224.7,3.29E+09,,,
224.74,3.92E+09,,,
224.78,4.56E+09,,,
224.82,5.13E+09,,,
224.87,5.59E+09,,,
224.91,5.69E+09,,,
224.95,5.52E+09,,,
224.99,5.11E+09,,,
225.04,4.36E+09,,,
225.08,3.66E+09,,,
225.12,2.95E+09,,,
225.16,2.28E+09,,,
225.21,1.56E+09,,,
225.25,1.10E+09,,,
225.29,7.41E+08,,,
225.33,4.77E+08,,,
225.38,2.56E+08,,,
225.42,1.47E+08,,,
225.46,7.95E+07,,,
225.5,4.08E+07,,,
225.55,1.63E+07,,,
225.59,7.32E+06,,,
225.63,3.10E+06,,,
225.67,1.23E+06,,,
225.72,3.57E+05,,,
225.76,1.23E+05,,,
225.8,4.01E+04,,,
225.84,1.23E+04,,,
225.89,2.55E+03,,,
225.93,6.75E+02,,,
225.97,1.69E+02,,,
226.01,4.16E+01,,,
226.06,2.14E+01,,,
226.1,6.82E+01,,,
226.14,2.71E+02,,,
226.18,1.03E+03,,,
226.23,5.01E+03,,,
226.27,1.65E+04,,,
226.31,5.14E+04,,,
226.35,1.50E+05,,,
226.4,5.24E+05,,,
226.44,1.33E+06,,,
226.48,3.17E+06,,,
226.52,7.11E+06,,,
226.57,1.79E+07,,,
226.61,3.48E+07,,,
226.65,6.38E+07,,,
226.69,1.10E+08,,,
226.74,1.99E+08,,,
226.78,2.97E+08,,,
226.82,4.18E+08,,,
226.86,5.53E+08,,,
226.91,7.19E+08,,,
226.95,8.26E+08,,,
226.99,8.93E+08,,,
227.03,9.07E+08,,,
227.08,8.48E+08,,,
227.12,7.49E+08,,,
227.16,6.21E+08,,,
227.2,4.85E+08,,,
227.25,3.26E+08,,,
227.29,2.22E+08,,,
227.33,1.43E+08,,,
227.37,8.78E+07,,,
227.42,4.76E+07,,,
227.46,3.24E+07,,,
227.5,2.76E+07,,,
227.54,2.97E+07,,,
227.59,3.79E+07,,,
227.63,4.64E+07,,,
227.67,5.44E+07,,,
227.71,6.04E+07,,,
227.76,6.33E+07,,,
227.8,6.14E+07,,,
227.84,5.60E+07,,,
227.88,4.80E+07,,,
227.93,3.63E+07,,,
227.97,2.71E+07,,,
228.01,1.90E+07,,,
228.05,1.25E+07,,,
228.1,6.82E+06,,,
228.14,3.91E+06,,,
228.18,2.11E+06,,,
228.22,1.07E+06,,,
228.27,4.21E+05,,,
228.31,1.86E+05,,,
228.35,7.71E+04,,,
228.39,3.01E+04,,,
228.44,8.51E+03,,,
228.48,2.89E+03,,,
228.52,9.24E+02,,,
228.56,2.78E+02,,,
228.61,5.68E+01,,,
228.65,1.56E+01,,,
228.69,6.15E+00,,,
228.73,8.24E+00,,,
228.78,2.63E+01,,,
228.82,6.72E+01,,,
228.86,1.62E+02,,,
228.9,3.69E+02,,,
228.95,9.44E+02,,,
228.99,1.87E+03,,,
229.03,3.49E+03,,,
229.08,6.98E+03,,,
229.12,1.14E+04,,,
229.16,1.74E+04,,,
229.2,2.50E+04,,,
229.25,3.63E+04,,,
229.29,4.55E+04,,,
229.33,5.38E+04,,,
229.37,5.99E+04,,,
229.42,6.28E+04,,,
229.46,6.11E+04,,,
229.5,5.65E+04,,,
229.54,5.10E+04,,,
229.59,5.15E+04,,,
229.63,7.58E+04,,,
229.67,1.65E+05,,,
229.71,4.27E+05,,,
229.76,1.40E+06,,,
229.8,3.45E+06,,,
229.84,8.02E+06,,,
229.88,1.76E+07,,,
