Wavelength,Spectra,,
293.06,4.98E-09,,
293.1,2.52E-08,,
293.15,1.81E-07,,
293.19,8.41E-07,,
293.23,3.77E-06,,
293.27,1.63E-05,,
293.32,9.63E-05,,
293.36,3.83E-04,,
293.4,1.47E-03,,
293.44,5.42E-03,,
293.49,2.64E-02,,
293.53,8.97E-02,,
293.57,2.94E-01,,
293.61,9.29E-01,,
293.66,3.71E+00,,
293.7,1.08E+01,,
293.74,3.03E+01,,
293.78,8.18E+01,,
293.83,2.69E+02,,
293.87,6.69E+02,,
293.91,1.60E+03,,
293.95,3.71E+03,,
294,1.00E+04,,
294.04,2.13E+04,,
294.08,4.37E+04,,
294.12,8.64E+04,,
294.17,1.92E+05,,
294.21,3.49E+05,,
294.25,6.12E+05,,
294.29,1.04E+06,,
294.34,1.89E+06,,
294.38,2.94E+06,,
294.42,4.41E+06,,
294.46,6.38E+06,,
294.51,9.60E+06,,
294.55,1.28E+07,,
294.59,1.64E+07,,
294.63,2.02E+07,,
294.68,2.50E+07,,
294.72,2.85E+07,,
294.76,3.12E+07,,
294.8,3.30E+07,,
294.85,3.35E+07,,
294.89,3.26E+07,,
294.93,3.06E+07,,
294.97,2.77E+07,,
295.02,2.31E+07,,
295.06,1.92E+07,,
295.1,1.54E+07,,
295.14,1.19E+07,,
295.19,8.21E+06,,
295.23,5.84E+06,,
295.27,4.00E+06,,
295.31,2.65E+06,,
295.36,1.50E+06,,
295.4,9.11E+05,,
295.44,5.34E+05,,
295.48,3.02E+05,,
295.53,1.41E+05,,
295.57,7.31E+04,,
295.61,3.67E+04,,
295.65,1.77E+04,,
295.7,6.78E+03,,
295.74,3.02E+03,,
295.78,1.29E+03,,
295.82,5.35E+02,,
295.87,1.68E+02,,
295.91,6.40E+01,,
295.95,2.35E+01,,
295.99,8.30E+00,,
296.04,2.16E+00,,
296.08,7.22E-01,,
296.12,2.97E-01,,
296.16,3.24E-01,,
296.21,1.10E+00,,
296.25,3.31E+00,,
296.29,9.70E+00,,
296.33,2.74E+01,,
296.38,9.56E+01,,
296.42,2.49E+02,,
296.46,6.27E+02,,
296.51,1.89E+03,,
296.55,4.38E+03,,
296.59,9.79E+03,,
296.63,2.11E+04,,
296.68,5.24E+04,,
296.72,1.04E+05,,
296.76,2.00E+05,,
296.8,3.70E+05,,
296.85,7.57E+05,,
296.89,1.29E+06,,
296.93,2.12E+06,,
296.97,3.37E+06,,
297.02,5.69E+06,,
297.06,8.33E+06,,
297.1,1.17E+07,,
297.14,1.60E+07,,
297.19,2.23E+07,,
297.23,2.79E+07,,
297.27,3.38E+07,,
297.31,3.94E+07,,
297.36,4.54E+07,,
297.4,4.88E+07,,
297.44,5.06E+07,,
297.48,5.06E+07,,
297.53,4.81E+07,,
297.57,4.43E+07,,
297.61,3.94E+07,,
297.65,3.39E+07,,
297.7,2.67E+07,,
297.74,2.14E+07,,
297.78,1.67E+07,,
297.82,1.31E+07,,
297.87,1.02E+07,,
297.91,9.31E+06,,
297.95,9.89E+06,,
297.99,1.20E+07,,
298.04,1.69E+07,,
298.08,2.26E+07,,
298.12,2.98E+07,,
298.16,3.84E+07,,
298.21,5.04E+07,,
298.25,6.03E+07,,
298.29,6.96E+07,,
298.33,7.75E+07,,
298.38,8.43E+07,,
298.42,8.66E+07,,
298.46,8.58E+07,,
298.5,8.21E+07,,
298.55,7.38E+07,,
298.59,6.50E+07,,
298.63,5.53E+07,,
298.67,4.54E+07,,
298.72,3.37E+07,,
298.76,2.55E+07,,
298.8,1.87E+07,,
298.84,1.32E+07,,
298.89,8.11E+06,,
298.93,5.34E+06,,
298.97,3.46E+06,,
299.01,2.28E+06,,
299.06,1.55E+06,,
299.1,1.41E+06,,
299.14,1.58E+06,,
299.18,2.03E+06,,
299.23,2.94E+06,,
299.27,3.95E+06,,
299.31,5.20E+06,,
299.35,6.66E+06,,
299.4,8.69E+06,,
299.44,1.04E+07,,
299.48,1.21E+07,,
299.52,1.36E+07,,
299.57,1.51E+07,,
299.61,1.58E+07,,
299.65,1.61E+07,,
299.69,1.58E+07,,
299.74,1.48E+07,,
299.78,1.36E+07,,
299.82,1.21E+07,,
299.86,1.03E+07,,
299.91,8.18E+06,,
299.95,6.57E+06,,
299.99,5.15E+06,,
300.03,3.98E+06,,
300.08,2.92E+06,,
300.12,2.39E+06,,
300.16,2.12E+06,,
300.2,2.10E+06,,
300.25,2.33E+06,,
300.29,2.67E+06,,
300.33,3.10E+06,,
300.37,3.55E+06,,
300.42,4.08E+06,,
300.46,4.39E+06,,
300.5,4.58E+06,,
300.54,4.62E+06,,
300.59,4.44E+06,,
300.63,4.14E+06,,
300.67,3.72E+06,,
300.71,3.23E+06,,
300.76,2.57E+06,,
300.8,2.06E+06,,
300.84,1.59E+06,,
300.88,1.19E+06,,
300.93,7.86E+05,,
300.97,5.42E+05,,
301.01,3.60E+05,,
301.05,2.32E+05,,
301.1,1.27E+05,,
301.14,7.51E+04,,
301.18,4.30E+04,,
301.22,2.39E+04,,
301.27,1.11E+04,,
301.31,6.36E+03,,
301.35,4.62E+03,,
301.39,5.36E+03,,
301.44,1.04E+04,,
301.48,1.97E+04,,
301.52,3.71E+04,,
301.56,6.77E+04,,
301.61,1.37E+05,,
301.65,2.32E+05,,
301.69,3.79E+05,,
301.73,5.97E+05,,
301.78,1.01E+06,,
301.82,1.46E+06,,
301.86,2.06E+06,,
301.9,2.80E+06,,
301.95,3.91E+06,,
301.99,4.91E+06,,
302.03,5.95E+06,,
302.07,6.97E+06,,
302.12,8.08E+06,,
302.16,8.74E+06,,
302.2,9.13E+06,,
302.24,9.21E+06,,
302.29,8.87E+06,,
302.33,8.27E+06,,
302.37,7.44E+06,,
302.41,6.47E+06,,
302.46,5.17E+06,,
302.5,4.15E+06,,
302.54,3.22E+06,,
302.58,2.41E+06,,
302.63,1.60E+06,,
302.67,1.11E+06,,
302.71,7.40E+05,,
302.75,4.78E+05,,
302.8,2.63E+05,,
302.84,1.57E+05,,
302.88,9.04E+04,,
302.92,5.03E+04,,
302.97,2.30E+04,,
303.01,1.18E+04,,
303.05,5.86E+03,,
303.1,2.32E+03,,
303.14,1.07E+03,,
303.18,4.72E+02,,
303.22,2.02E+02,,
303.27,6.68E+01,,
303.31,2.75E+01,,
303.35,1.36E+01,,
303.39,1.34E+01,,
303.44,3.38E+01,,
303.48,8.35E+01,,
303.52,2.04E+02,,
303.56,4.83E+02,,
303.61,1.35E+03,,
303.65,2.97E+03,,
303.69,6.29E+03,,
303.73,1.29E+04,,
303.78,3.00E+04,,
303.82,5.68E+04,,
303.86,1.04E+05,,
303.9,1.84E+05,,
303.95,3.56E+05,,
303.99,5.82E+05,,
304.03,9.20E+05,,
304.07,1.40E+06,,
304.12,2.27E+06,,
304.16,3.20E+06,,
304.2,4.37E+06,,
304.24,5.76E+06,,
304.29,7.74E+06,,
304.33,9.44E+06,,
304.37,1.11E+07,,
304.41,1.27E+07,,
304.46,1.42E+07,,
304.5,1.49E+07,,
304.54,1.52E+07,,
304.58,1.49E+07,,
304.63,1.39E+07,,
304.67,1.27E+07,,
304.71,1.11E+07,,
304.75,9.44E+06,,
304.8,7.33E+06,,
304.84,5.76E+06,,
304.88,4.37E+06,,
304.92,3.20E+06,,
304.97,2.07E+06,,
305.01,1.40E+06,,
305.05,9.20E+05,,
305.09,5.82E+05,,
305.14,3.13E+05,,
305.18,1.84E+05,,
305.22,1.04E+05,,
305.26,5.68E+04,,
305.31,2.54E+04,,
305.35,1.29E+04,,
305.39,6.29E+03,,
305.43,2.97E+03,,
305.48,1.11E+03,,
305.52,4.83E+02,,
305.56,2.04E+02,,
305.6,8.32E+01,,
305.65,2.58E+01,,
305.69,9.74E+00,,
305.73,3.55E+00,,
305.77,1.25E+00,,
305.82,3.23E-01,,
305.86,1.05E-01,,
305.9,3.31E-02,,
305.94,1.01E-02,,
305.99,2.17E-03,,
306.03,6.10E-04,,
306.07,1.66E-04,,
306.11,4.36E-05,,
306.16,7.80E-06,,
306.2,1.90E-06,,
306.24,4.45E-07,,
306.28,1.01E-07,,
306.33,1.51E-08,,
306.37,3.16E-09,,
316.02,8.21E-08,,
316.06,3.69E-07,,
316.1,1.61E-06,,
316.15,9.69E-06,,
316.19,3.93E-05,,
316.23,1.55E-04,,
316.27,5.89E-04,,
316.32,3.00E-03,,
316.36,1.06E-02,,
316.4,3.66E-02,,
316.44,1.22E-01,,
316.49,5.24E-01,,
316.53,1.62E+00,,
316.57,4.88E+00,,
316.62,1.85E+01,,
316.66,5.17E+01,,
316.7,1.40E+02,,
316.74,3.68E+02,,
316.79,1.18E+03,,
316.83,2.88E+03,,
316.87,6.81E+03,,
316.91,1.56E+04,,
316.96,4.23E+04,,
317,9.04E+04,,
317.04,1.87E+05,,
317.08,3.76E+05,,
317.13,8.58E+05,,
317.17,1.60E+06,,
317.21,2.90E+06,,
317.25,5.09E+06,,
317.3,9.83E+06,,
317.34,1.61E+07,,
317.38,2.54E+07,,
317.42,3.89E+07,,
317.47,6.35E+07,,
317.51,9.07E+07,,
317.55,1.26E+08,,
317.59,1.68E+08,,
317.64,2.32E+08,,
317.68,2.90E+08,,
317.72,3.50E+08,,
317.76,4.10E+08,,
317.81,4.78E+08,,
317.85,5.22E+08,,
317.89,5.51E+08,,
317.93,5.65E+08,,
317.98,5.56E+08,,
318.02,5.30E+08,,
318.06,4.90E+08,,
318.1,4.39E+08,,
318.15,3.65E+08,,
318.19,3.05E+08,,
318.23,2.46E+08,,
318.27,1.92E+08,,
318.32,1.35E+08,,
318.36,9.87E+07,,
318.4,6.97E+07,,
318.44,4.77E+07,,
318.49,2.85E+07,,
318.53,1.83E+07,,
318.57,1.16E+07,,
318.61,7.74E+06,,
318.66,6.02E+06,,
318.7,7.18E+06,,
318.74,1.13E+07,,
318.78,1.97E+07,,
318.83,4.05E+07,,
318.87,7.03E+07,,
318.91,1.19E+08,,
318.95,1.94E+08,,
319,3.45E+08,,
319.04,5.26E+08,,
319.08,7.79E+08,,
319.12,1.12E+09,,
319.17,1.68E+09,,
319.21,2.25E+09,,
319.25,2.92E+09,,
319.29,3.67E+09,,
319.34,4.69E+09,,
319.38,5.52E+09,,
319.42,6.32E+09,,
319.46,7.04E+09,,
319.51,7.76E+09,,
319.55,8.19E+09,,
319.59,8.47E+09,,
319.63,8.63E+09,,
319.68,8.73E+09,,
319.72,8.77E+09,,
319.76,8.85E+09,,
319.8,8.99E+09,,
319.85,9.31E+09,,
319.89,9.67E+09,,
319.93,1.01E+10,,
319.97,1.06E+10,,
320.02,1.13E+10,,
320.06,1.18E+10,,
320.1,1.22E+10,,
320.14,1.25E+10,,
320.19,1.26E+10,,
320.23,1.25E+10,,
320.27,1.22E+10,,
320.31,1.17E+10,,
320.36,1.08E+10,,
320.4,9.85E+09,,
320.44,8.81E+09,,
320.48,7.70E+09,,
320.53,6.29E+09,,
320.57,5.19E+09,,
320.61,4.16E+09,,
320.65,3.25E+09,,
320.7,2.30E+09,,
320.74,1.68E+09,,
320.78,1.20E+09,,
320.82,8.39E+08,,
320.87,5.33E+08,,
320.91,3.87E+08,,
320.95,3.20E+08,,
320.99,3.29E+08,,
321.04,4.53E+08,,
321.08,6.63E+08,,
321.12,9.94E+08,,
321.16,1.48E+09,,
321.21,2.35E+09,,
321.25,3.30E+09,,
321.29,4.50E+09,,
321.33,5.94E+09,,
321.38,8.05E+09,,
321.42,9.92E+09,,
321.46,1.19E+10,,
321.5,1.37E+10,,
321.55,1.58E+10,,
321.59,1.71E+10,,
321.63,1.79E+10,,
321.67,1.81E+10,,
321.72,1.77E+10,,
321.76,1.68E+10,,
321.8,1.54E+10,,
321.84,1.37E+10,,
321.89,1.14E+10,,
321.93,9.44E+09,,
321.97,7.60E+09,,
322.01,5.94E+09,,
322.06,4.17E+09,,
322.1,3.04E+09,,
322.14,2.15E+09,,
322.18,1.47E+09,,
322.23,8.76E+08,,
322.27,5.59E+08,,
322.31,3.46E+08,,
322.35,2.08E+08,,
322.4,1.05E+08,,
322.44,5.89E+07,,
322.48,3.20E+07,,
322.52,1.68E+07,,
322.57,7.23E+06,,
322.61,3.55E+06,,
322.65,1.69E+06,,
322.69,7.80E+05,,
322.74,2.84E+05,,
322.78,1.22E+05,,
322.82,5.12E+04,,
322.86,2.12E+04,,
322.91,8.23E+03,,
322.95,7.38E+03,,
322.99,1.39E+04,,
323.03,3.31E+04,,
323.08,1.00E+05,,
323.12,2.37E+05,,
323.16,5.44E+05,,
323.2,1.21E+06,,
323.25,3.14E+06,,
323.29,6.53E+06,,
323.33,1.31E+07,,
323.38,3.02E+07,,
323.42,5.68E+07,,
323.46,1.04E+08,,
323.5,1.84E+08,,
323.55,3.59E+08,,
323.59,5.93E+08,,
323.63,9.50E+08,,
323.67,1.48E+09,,
323.72,2.46E+09,,
323.76,3.57E+09,,
323.8,5.03E+09,,
323.84,6.87E+09,,
323.89,9.72E+09,,
323.93,1.24E+10,,
323.97,1.53E+10,,
324.01,1.84E+10,,
324.06,2.22E+10,,
324.1,2.49E+10,,
324.14,2.70E+10,,
324.18,2.85E+10,,
324.23,2.92E+10,,
324.27,2.87E+10,,
324.31,2.75E+10,,
324.35,2.54E+10,,
324.4,2.22E+10,,
324.44,1.92E+10,,
324.48,1.61E+10,,
324.52,1.31E+10,,
324.57,9.72E+09,,
324.61,7.39E+09,,
324.65,5.45E+09,,
324.69,3.90E+09,,
324.74,2.46E+09,,
324.78,1.64E+09,,
324.82,1.06E+09,,
324.86,6.69E+08,,
324.91,3.59E+08,,
324.95,2.11E+08,,
324.99,1.20E+08,,
325.03,6.62E+07,,
325.08,3.02E+07,,
325.12,1.56E+07,,
325.16,7.80E+06,,
325.2,3.78E+06,,
325.25,1.47E+06,,
325.29,6.66E+05,,
325.33,2.93E+05,,
325.37,1.25E+05,,
325.42,4.12E+04,,
325.46,1.64E+04,,
325.5,6.34E+03,,
325.54,2.37E+03,,
325.59,6.67E+02,,
325.63,2.33E+02,,
325.67,7.92E+01,,
325.71,2.61E+01,,
325.76,6.23E+00,,
325.8,1.91E+00,,
325.84,5.71E-01,,
325.88,1.65E-01,,
325.93,3.36E-02,,
325.97,9.06E-03,,
326.01,2.37E-03,,
326.05,6.03E-04,,
326.1,1.04E-04,,
326.14,2.48E-05,,
326.18,5.70E-06,,
342.8,8.31E-08,,
342.85,4.68E-07,,
342.89,1.81E-06,,
342.93,6.80E-06,,
342.97,2.49E-05,,
343.02,1.22E-04,,
343.06,4.19E-04,,
343.1,1.41E-03,,
343.14,4.59E-03,,
343.19,1.94E-02,,
343.23,5.97E-02,,
343.27,1.79E-01,,
343.31,5.21E-01,,
343.36,1.91E+00,,
343.4,5.24E+00,,
343.44,1.40E+01,,
343.48,3.63E+01,,
343.53,1.15E+02,,
343.57,2.82E+02,,
343.61,6.72E+02,,
343.66,1.92E+03,,
343.7,4.29E+03,,
343.74,9.37E+03,,
343.78,1.99E+04,,
343.83,4.91E+04,,
343.87,9.82E+04,,
343.91,1.91E+05,,
343.95,3.62E+05,,
344,7.75E+05,,
344.04,1.38E+06,,
344.08,2.40E+06,,
344.12,4.05E+06,,
344.17,7.52E+06,,
344.21,1.20E+07,,
344.25,1.85E+07,,
344.29,2.79E+07,,
344.34,4.49E+07,,
344.38,6.37E+07,,
344.42,8.79E+07,,
344.46,1.18E+08,,
344.51,1.65E+08,,
344.55,2.09E+08,,
344.59,2.57E+08,,
344.63,3.08E+08,,
344.68,3.72E+08,,
344.72,4.20E+08,,
344.76,4.62E+08,,
344.8,4.94E+08,,
344.85,5.17E+08,,
344.89,5.20E+08,,
344.93,5.10E+08,,
344.97,4.87E+08,,
345.02,4.42E+08,,
345.06,3.97E+08,,
345.1,3.47E+08,,
345.14,2.95E+08,,
345.19,2.32E+08,,
345.23,1.86E+08,,
345.27,1.45E+08,,
345.31,1.10E+08,,
345.36,7.51E+07,,
345.4,5.36E+07,,
345.44,3.73E+07,,
345.48,2.53E+07,,
345.53,1.49E+07,,
345.57,9.51E+06,,
345.61,5.90E+06,,
345.65,3.56E+06,,
345.7,1.83E+06,,
345.74,1.04E+06,,
345.78,5.74E+05,,
345.82,3.09E+05,,
345.87,1.37E+05,,
345.91,6.97E+04,,
345.95,3.44E+04,,
345.99,1.65E+04,,
346.04,6.36E+03,,
346.08,2.88E+03,,
346.12,1.27E+03,,
346.16,5.43E+02,,
346.21,1.81E+02,,
346.25,7.31E+01,,
346.29,2.87E+01,,
346.33,1.10E+01,,
346.38,3.17E+00,,
346.42,1.14E+00,,
346.46,4.00E-01,,
346.5,1.36E-01,,
346.55,3.42E-02,,
346.59,1.10E-02,,
346.63,3.43E-03,,
346.67,1.04E-03,,
346.72,2.26E-04,,
346.76,6.48E-05,,
346.8,1.81E-05,,
346.84,4.90E-06,,
346.89,9.23E-07,,
346.93,2.36E-07,,
346.97,5.86E-08,,
347.52,1.23E-06,,
347.57,6.68E-06,,
347.61,2.51E-05,,
347.65,9.16E-05,,
347.69,3.26E-04,,
347.74,1.54E-03,,
347.78,5.16E-03,,
347.82,1.69E-02,,
347.86,5.37E-02,,
347.91,2.20E-01,,
347.95,6.61E-01,,
347.99,1.94E+00,,
348.03,5.51E+00,,
348.08,1.97E+01,,
348.12,5.29E+01,,
348.16,1.38E+02,,
348.2,3.53E+02,,
348.25,1.10E+03,,
348.29,2.63E+03,,
348.33,6.17E+03,,
348.37,1.41E+04,,
348.42,3.80E+04,,
348.46,8.18E+04,,
348.5,1.71E+05,,
348.54,3.50E+05,,
348.59,8.22E+05,,
348.63,1.58E+06,,
348.67,2.97E+06,,
348.71,5.42E+06,,
348.76,1.11E+07,,
348.8,1.91E+07,,
348.84,3.20E+07,,
348.88,5.23E+07,,
348.93,9.30E+07,,
348.97,1.43E+08,,
349.01,2.15E+08,,
349.05,3.14E+08,,
349.1,4.87E+08,,
349.14,6.71E+08,,
349.18,9.01E+08,,
349.22,1.18E+09,,
349.27,1.59E+09,,
349.31,1.96E+09,,
349.35,2.35E+09,,
349.39,2.75E+09,,
349.44,3.23E+09,,
349.48,3.56E+09,,
349.52,3.83E+09,,
349.56,4.01E+09,,
349.61,4.09E+09,,
349.65,4.04E+09,,
349.69,3.88E+09,,
349.73,3.64E+09,,
349.78,3.23E+09,,
349.82,2.85E+09,,
349.86,2.45E+09,,
349.9,2.06E+09,,
349.95,1.59E+09,,
349.99,1.26E+09,,
350.03,9.66E+08,,
350.07,7.24E+08,,
350.12,4.87E+08,,
350.16,3.44E+08,,
350.2,2.37E+08,,
350.25,1.43E+08,,
350.29,9.31E+07,,
350.33,5.89E+07,,
350.37,3.63E+07,,
350.42,1.91E+07,,
350.46,1.11E+07,,
350.5,6.32E+06,,
350.54,3.53E+06,,
350.59,1.69E+06,,
350.63,9.60E+05,,
350.67,5.95E+05,,
350.71,4.31E+05,,
350.76,3.73E+05,,
350.8,3.85E+05,,
350.84,4.20E+05,,
350.88,4.64E+05,,
350.93,5.16E+05,,
350.97,5.48E+05,,
351.01,5.69E+05,,
351.05,5.77E+05,,
351.1,5.65E+05,,
351.14,5.40E+05,,
351.18,5.03E+05,,
351.22,4.56E+05,,
351.27,3.89E+05,,
351.31,3.33E+05,,
351.35,2.78E+05,,
351.39,2.26E+05,,
351.44,1.68E+05,,
351.48,1.29E+05,,
351.52,9.60E+04,,
351.56,6.99E+04,,
351.61,4.53E+04,,
351.65,3.11E+04,,
351.69,2.08E+04,,
351.73,1.35E+04,,
351.78,7.63E+03,,
351.82,4.69E+03,,
351.86,2.81E+03,,
351.9,1.64E+03,,
351.95,8.06E+02,,
351.99,4.44E+02,,
352.03,2.38E+02,,
352.07,1.24E+02,,
352.12,5.32E+01,,
352.16,2.62E+01,,
352.2,1.26E+01,,
352.24,5.89E+00,,
352.29,2.20E+00,,
352.33,9.70E-01,,
352.37,4.17E-01,,
352.41,1.75E-01,,
352.46,5.68E-02,,
352.5,2.25E-02,,
352.54,8.65E-03,,
352.58,3.25E-03,,
352.63,9.19E-04,,
352.67,3.25E-04,,
352.71,1.12E-04,,
352.75,3.88E-05,,
352.8,1.54E-05,,
352.84,2.59E-05,,
352.88,8.47E-05,,
352.92,2.99E-04,,
352.97,1.41E-03,,
353.01,4.74E-03,,
353.05,1.56E-02,,
353.09,4.97E-02,,
353.14,2.05E-01,,
353.18,6.19E-01,,
353.22,1.82E+00,,
353.26,5.23E+00,,
353.31,1.89E+01,,
353.35,5.11E+01,,
353.39,1.35E+02,,
353.43,3.48E+02,,
353.48,1.10E+03,,
353.52,2.67E+03,,
353.56,6.33E+03,,
353.6,1.46E+04,,
353.65,4.03E+04,,
353.69,8.80E+04,,
353.73,1.87E+05,,
353.77,3.89E+05,,
353.82,9.35E+05,,
353.86,1.83E+06,,
353.9,3.50E+06,,
353.94,6.53E+06,,
353.99,1.37E+07,,
354.03,2.41E+07,,
354.07,4.14E+07,,
354.11,6.93E+07,,
354.16,1.27E+08,,
354.2,2.01E+08,,
354.24,3.09E+08,,
354.28,4.65E+08,,
354.33,7.45E+08,,
354.37,1.06E+09,,
354.41,1.46E+09,,
354.45,1.97E+09,,
354.5,2.76E+09,,
354.54,3.51E+09,,
354.58,4.36E+09,,
354.62,5.28E+09,,
354.67,6.46E+09,,
354.71,7.38E+09,,
354.75,8.23E+09,,
354.79,8.93E+09,,
354.84,9.56E+09,,
354.88,9.81E+09,,
354.92,9.81E+09,,
354.96,9.57E+09,,
355.01,8.95E+09,,
355.05,8.24E+09,,
355.09,7.40E+09,,
355.13,6.49E+09,,
355.18,5.30E+09,,
355.22,4.39E+09,,
355.26,3.54E+09,,
355.3,2.79E+09,,
355.35,2.00E+09,,
355.39,1.49E+09,,
355.43,1.08E+09,,
355.47,7.67E+08,,
355.52,4.83E+08,,
355.56,3.25E+08,,
355.6,2.14E+08,,
355.64,1.37E+08,,
355.69,7.68E+07,,
355.73,4.71E+07,,
355.77,2.83E+07,,
355.81,1.67E+07,,
355.86,8.45E+06,,
355.9,4.81E+06,,
355.94,2.70E+06,,
355.98,1.49E+06,,
356.03,7.01E+05,,
356.07,3.77E+05,,
356.11,2.01E+05,,
356.15,1.06E+05,,
356.2,4.66E+04,,
356.24,2.39E+04,,
356.28,1.20E+04,,
356.32,5.98E+03,,
356.37,2.45E+03,,
356.41,1.21E+03,,
356.45,6.50E+02,,
356.49,4.69E+02,,
356.54,6.12E+02,,
356.58,1.05E+03,,
356.62,1.91E+03,,
356.66,3.48E+03,,
356.71,7.16E+03,,
356.75,1.24E+04,,
356.79,2.10E+04,,
356.83,3.46E+04,,
356.88,6.25E+04,,
356.92,9.75E+04,,
356.96,1.48E+05,,
357.01,2.42E+05,,
357.05,3.49E+05,,
357.09,4.91E+05,,
357.13,6.75E+05,,
357.18,9.76E+05,,
357.22,1.28E+06,,
357.26,1.67E+06,,
357.3,2.15E+06,,
357.35,2.97E+06,,
357.39,3.93E+06,,
357.43,5.35E+06,,
357.47,7.61E+06,,
357.52,1.25E+07,,
357.56,1.93E+07,,
357.6,3.04E+07,,
357.64,4.83E+07,,
357.69,8.54E+07,,
357.73,1.33E+08,,
357.77,2.03E+08,,
357.81,3.05E+08,,
357.86,4.89E+08,,
357.9,6.96E+08,,
357.94,9.67E+08,,
357.98,1.31E+09,,
358.03,1.85E+09,,
358.07,2.38E+09,,
358.11,2.97E+09,,
358.15,3.63E+09,,
358.2,4.49E+09,,
358.24,5.19E+09,,
358.28,5.84E+09,,
358.32,6.41E+09,,
358.37,6.95E+09,,
358.41,7.22E+09,,
358.45,7.31E+09,,
358.49,7.22E+09,,
358.54,6.86E+09,,
358.58,6.41E+09,,
358.62,5.84E+09,,
358.66,5.19E+09,,
358.71,4.32E+09,,
358.75,3.63E+09,,
358.79,2.97E+09,,
358.83,2.38E+09,,
358.88,1.73E+09,,
358.92,1.31E+09,,
358.96,9.68E+08,,
359,6.99E+08,,
359.05,4.55E+08,,
359.09,3.23E+08,,
359.13,2.38E+08,,
359.17,1.97E+08,,
359.22,2.06E+08,,
359.26,2.69E+08,,
359.3,3.94E+08,,
359.34,6.03E+08,,
359.39,1.03E+09,,
359.43,1.55E+09,,
359.47,2.28E+09,,
359.51,3.29E+09,,
359.56,5.01E+09,,
359.6,6.84E+09,,
359.64,9.12E+09,,
359.68,1.19E+10,,
359.73,1.59E+10,,
359.77,1.96E+10,,
359.81,2.36E+10,,
359.85,2.78E+10,,
359.9,3.28E+10,,
359.94,3.66E+10,,
359.98,3.98E+10,,
360.02,4.22E+10,,
360.07,4.40E+10,,
360.11,4.43E+10,,
360.15,4.36E+10,,
360.19,4.19E+10,,
360.24,3.86E+10,,
360.28,3.52E+10,,
360.32,3.14E+10,,
360.36,2.74E+10,,
360.41,2.25E+10,,
360.45,1.89E+10,,
360.49,1.57E+10,,
360.53,1.31E+10,,
360.58,1.06E+10,,
360.62,9.37E+09,,
360.66,8.74E+09,,
360.7,8.70E+09,,
360.75,9.35E+09,,
360.79,1.03E+10,,
360.83,1.16E+10,,
360.87,1.31E+10,,
360.92,1.49E+10,,
360.96,1.63E+10,,
361,1.75E+10,,
361.04,1.83E+10,,
361.09,1.87E+10,,
361.13,1.86E+10,,
361.17,1.80E+10,,
361.21,1.71E+10,,
361.26,1.54E+10,,
361.3,1.38E+10,,
361.34,1.20E+10,,
361.38,1.03E+10,,
361.43,8.13E+09,,
361.47,6.57E+09,,
361.51,5.18E+09,,
361.55,4.00E+09,,
361.6,2.80E+09,,
361.64,2.07E+09,,
361.68,1.50E+09,,
361.72,1.09E+09,,
361.77,7.36E+08,,
361.81,5.57E+08,,
361.85,4.45E+08,,
361.89,3.79E+08,,
361.94,3.41E+08,,
361.98,3.31E+08,,
362.02,3.32E+08,,
362.06,3.38E+08,,
362.11,3.51E+08,,
362.15,3.66E+08,,
362.19,3.87E+08,,
362.23,4.21E+08,,
362.28,4.87E+08,,
362.32,5.69E+08,,
362.36,6.85E+08,,
362.4,8.43E+08,,
362.45,1.11E+09,,
362.49,1.38E+09,,
362.53,1.72E+09,,
362.57,2.11E+09,,
362.62,2.70E+09,,
362.66,3.24E+09,,
362.7,3.85E+09,,
362.74,4.54E+09,,
362.79,5.50E+09,,
362.83,6.36E+09,,
362.87,7.30E+09,,
362.91,8.34E+09,,
362.96,9.74E+09,,
363,1.09E+10,,
363.04,1.22E+10,,
363.08,1.34E+10,,
363.13,1.48E+10,,
363.17,1.57E+10,,
363.21,1.64E+10,,
363.25,1.69E+10,,
363.3,1.70E+10,,
363.34,1.67E+10,,
363.38,1.60E+10,,
363.42,1.51E+10,,
363.47,1.35E+10,,
363.51,1.21E+10,,
363.55,1.05E+10,,
363.59,8.97E+09,,
363.64,7.11E+09,,
363.68,5.74E+09,,
363.72,4.53E+09,,
363.77,3.25E+09,,
363.81,2.43E+09,,
363.85,1.77E+09,,
363.89,1.26E+09,,
363.94,7.98E+08,,
363.98,5.38E+08,,
364.02,3.54E+08,,
364.06,2.28E+08,,
364.11,1.26E+08,,
364.15,7.69E+07,,
364.19,4.57E+07,,
364.23,2.65E+07,,
364.28,1.29E+07,,
364.32,7.10E+06,,
364.36,3.80E+06,,
364.4,1.99E+06,,
364.45,8.54E+05,,
364.49,4.23E+05,,
364.53,2.04E+05,,
364.57,9.64E+04,,
364.62,3.64E+04,,
364.66,1.63E+04,,
